Time (s),Distance
0.0,500.9736793115735
0.0009765625,502.02384227886796
0.001953125,503.59908672980964
0.0029296875,504.12416821345687
0.00390625,503.0740052461624
0.0048828125,502.02384227886796
0.005859375,500.9736793115735
0.0068359375,499.3984348606318
0.0078125,496.7730274423957
0.0087890625,494.6727015078068
0.009765625,493.0974570568651
0.0107421875,492.57237557321787
0.01171875,490.9971311222762
0.0126953125,489.4218866713345
0.013671875,489.4218866713345
0.0146484375,489.94696815498173
0.015625,490.47204963862896
0.0166015625,491.5222126059234
0.017578125,493.0974570568651
0.0185546875,495.197782991454
0.01953125,497.2981089260429
0.0205078125,499.3984348606318
0.021484375,500.9736793115735
0.0224609375,502.5489237625152
0.0234375,503.0740052461624
0.0244140625,502.5489237625152
0.025390625,502.5489237625152
0.0263671875,502.02384227886796
0.02734375,500.9736793115735
0.0283203125,499.3984348606318
0.029296875,497.2981089260429
0.0302734375,495.72286447510123
0.03125,493.6225385405123
0.0322265625,490.9971311222762
0.033203125,489.4218866713345
0.0341796875,488.8968051876873
0.03515625,488.37172370404005
0.0361328125,488.37172370404005
0.037109375,489.94696815498173
0.0380859375,492.57237557321787
0.0390625,494.6727015078068
0.0400390625,497.2981089260429
0.041015625,498.34827189333737
0.0419921875,500.4485978279263
0.04296875,502.02384227886796
0.0439453125,502.5489237625152
0.044921875,502.02384227886796
0.0458984375,502.02384227886796
0.046875,502.02384227886796
0.0478515625,500.9736793115735
0.048828125,499.3984348606318
0.0498046875,497.82319040969014
0.05078125,496.7730274423957
0.0517578125,494.6727015078068
0.052734375,492.57237557321787
0.0537109375,491.5222126059234
0.0546875,489.94696815498173
0.0556640625,488.8968051876873
0.056640625,488.8968051876873
0.0576171875,488.8968051876873
0.05859375,490.47204963862896
0.0595703125,492.04729408957064
0.060546875,493.6225385405123
0.0615234375,494.6727015078068
0.0625,496.24794595874846
0.0634765625,497.82319040969014
0.064453125,497.82319040969014
0.0654296875,498.8733533769846
0.06640625,499.3984348606318
0.0673828125,498.8733533769846
0.068359375,498.8733533769846
0.0693359375,498.34827189333737
0.0703125,497.2981089260429
0.0712890625,495.72286447510123
0.072265625,494.14762002415955
0.0732421875,492.04729408957064
0.07421875,490.9971311222762
0.0751953125,489.4218866713345
0.076171875,488.37172370404005
0.0771484375,487.8466422203928
0.078125,488.37172370404005
0.0791015625,488.8968051876873
0.080078125,489.4218866713345
0.0810546875,490.47204963862896
0.08203125,492.57237557321787
0.0830078125,494.6727015078068
0.083984375,496.24794595874846
0.0849609375,497.82319040969014
0.0859375,499.92351634427905
0.0869140625,501.49876079522073
0.087890625,502.5489237625152
0.0888671875,503.0740052461624
0.08984375,503.59908672980964
0.0908203125,503.59908672980964
0.091796875,502.02384227886796
0.0927734375,500.4485978279263
0.09375,498.8733533769846
0.0947265625,497.2981089260429
0.095703125,494.6727015078068
0.0966796875,491.5222126059234
0.09765625,489.94696815498173
0.0986328125,488.8968051876873
0.099609375,487.3215607367456
0.1005859375,486.27139776945114
0.1015625,485.7463162858039
0.1025390625,486.27139776945114
0.103515625,487.3215607367456
0.1044921875,488.37172370404005
0.10546875,490.47204963862896
0.1064453125,493.6225385405123
0.107421875,496.24794595874846
0.1083984375,497.82319040969014
0.109375,499.92351634427905
0.1103515625,502.5489237625152
0.111328125,504.12416821345687
0.1123046875,503.59908672980964
0.11328125,503.0740052461624
0.1142578125,501.49876079522073
0.115234375,499.92351634427905
0.1162109375,497.82319040969014
0.1171875,495.197782991454
0.1181640625,493.6225385405123
0.119140625,491.5222126059234
0.1201171875,488.37172370404005
0.12109375,486.79647925309837
0.1220703125,486.79647925309837
0.123046875,486.27139776945114
0.1240234375,487.3215607367456
0.125,488.8968051876873
0.1259765625,490.9971311222762
0.126953125,494.14762002415955
0.1279296875,496.7730274423957
0.12890625,499.3984348606318
0.1298828125,502.02384227886796
0.130859375,503.59908672980964
0.1318359375,505.69941266439855
0.1328125,505.1743311807513
0.1337890625,504.6492496971041
0.134765625,503.59908672980964
0.1357421875,501.49876079522073
0.13671875,499.92351634427905
0.1376953125,497.2981089260429
0.138671875,494.6727015078068
0.1396484375,491.5222126059234
0.140625,489.4218866713345
0.1416015625,487.3215607367456
0.142578125,486.27139776945114
0.1435546875,485.7463162858039
0.14453125,485.7463162858039
0.1455078125,487.3215607367456
0.146484375,489.94696815498173
0.1474609375,492.57237557321787
0.1484375,495.197782991454
0.1494140625,498.34827189333737
0.150390625,500.9736793115735
0.1513671875,502.5489237625152
0.15234375,504.6492496971041
0.1533203125,505.69941266439855
0.154296875,505.69941266439855
0.1552734375,505.1743311807513
0.15625,503.59908672980964
0.1572265625,502.02384227886796
0.158203125,499.3984348606318
0.1591796875,496.24794595874846
0.16015625,493.6225385405123
0.1611328125,489.94696815498173
0.162109375,487.8466422203928
0.1630859375,486.27139776945114
0.1640625,485.7463162858039
0.1650390625,485.7463162858039
0.166015625,486.27139776945114
0.1669921875,488.37172370404005
0.16796875,490.47204963862896
0.1689453125,493.0974570568651
0.169921875,496.24794595874846
0.1708984375,498.8733533769846
0.171875,501.49876079522073
0.1728515625,503.0740052461624
0.173828125,505.1743311807513
0.1748046875,506.2244941480458
0.17578125,506.2244941480458
0.1767578125,505.69941266439855
0.177734375,504.12416821345687
0.1787109375,501.49876079522073
0.1796875,498.8733533769846
0.1806640625,495.72286447510123
0.181640625,493.0974570568651
0.1826171875,490.47204963862896
0.18359375,487.8466422203928
0.1845703125,486.27139776945114
0.185546875,484.69615331850946
0.1865234375,484.69615331850946
0.1875,485.2212348021567
0.1884765625,487.3215607367456
0.189453125,488.8968051876873
0.1904296875,490.9971311222762
0.19140625,494.14762002415955
0.1923828125,496.7730274423957
0.193359375,499.3984348606318
0.1943359375,502.02384227886796
0.1953125,504.6492496971041
0.1962890625,507.27465711534023
0.197265625,507.79973859898746
0.1982421875,507.79973859898746
0.19921875,506.749575631693
0.2001953125,505.1743311807513
0.201171875,503.0740052461624
0.2021484375,499.92351634427905
0.203125,496.7730274423957
0.2041015625,494.14762002415955
0.205078125,491.5222126059234
0.2060546875,489.4218866713345
0.20703125,487.8466422203928
0.2080078125,487.3215607367456
0.208984375,487.8466422203928
0.2099609375,488.37172370404005
0.2109375,489.4218866713345
0.2119140625,492.04729408957064
0.212890625,495.197782991454
0.2138671875,497.82319040969014
0.21484375,500.9736793115735
0.2158203125,504.12416821345687
0.216796875,506.2244941480458
0.2177734375,507.79973859898746
0.21875,507.79973859898746
0.2197265625,506.749575631693
0.220703125,504.6492496971041
0.2216796875,502.5489237625152
0.22265625,499.92351634427905
0.2236328125,497.2981089260429
0.224609375,495.197782991454
0.2255859375,493.6225385405123
0.2265625,491.5222126059234
0.2275390625,490.47204963862896
0.228515625,490.9971311222762
0.2294921875,490.9971311222762
0.23046875,492.04729408957064
0.2314453125,493.0974570568651
0.232421875,495.197782991454
0.2333984375,496.7730274423957
0.234375,498.34827189333737
0.2353515625,498.8733533769846
0.236328125,500.4485978279263
0.2373046875,500.4485978279263
0.23828125,499.3984348606318
0.2392578125,498.34827189333737
0.240234375,497.82319040969014
0.2412109375,496.7730274423957
0.2421875,495.72286447510123
0.2431640625,494.14762002415955
0.244140625,493.6225385405123
0.2451171875,493.6225385405123
0.24609375,493.0974570568651
0.2470703125,492.04729408957064
0.248046875,493.0974570568651
0.2490234375,493.6225385405123
0.25,495.197782991454
0.2509765625,496.24794595874846
0.251953125,497.2981089260429
0.2529296875,498.8733533769846
0.25390625,499.92351634427905
0.2548828125,499.92351634427905
0.255859375,499.3984348606318
0.2568359375,498.34827189333737
0.2578125,497.2981089260429
0.2587890625,495.72286447510123
0.259765625,495.197782991454
0.2607421875,494.14762002415955
0.26171875,493.6225385405123
0.2626953125,492.57237557321787
0.263671875,492.57237557321787
0.2646484375,493.0974570568651
0.265625,492.57237557321787
0.2666015625,492.04729408957064
0.267578125,492.04729408957064
0.2685546875,492.57237557321787
0.26953125,493.0974570568651
0.2705078125,493.6225385405123
0.271484375,494.6727015078068
0.2724609375,495.72286447510123
0.2734375,497.2981089260429
0.2744140625,498.34827189333737
0.275390625,498.34827189333737
0.2763671875,497.82319040969014
0.27734375,497.2981089260429
0.2783203125,496.7730274423957
0.279296875,495.72286447510123
0.2802734375,495.197782991454
0.28125,494.6727015078068
0.2822265625,493.6225385405123
0.283203125,492.57237557321787
0.2841796875,491.5222126059234
0.28515625,491.5222126059234
0.2861328125,490.9971311222762
0.287109375,490.47204963862896
0.2880859375,490.9971311222762
0.2890625,492.04729408957064
0.2900390625,492.57237557321787
0.291015625,493.6225385405123
0.2919921875,494.6727015078068
0.29296875,497.2981089260429
0.2939453125,498.34827189333737
0.294921875,499.3984348606318
0.2958984375,499.92351634427905
0.296875,500.9736793115735
0.2978515625,500.4485978279263
0.298828125,499.3984348606318
0.2998046875,497.82319040969014
0.30078125,496.7730274423957
0.3017578125,495.197782991454
0.302734375,494.14762002415955
0.3037109375,492.57237557321787
0.3046875,492.04729408957064
0.3056640625,491.5222126059234
0.306640625,490.9971311222762
0.3076171875,490.9971311222762
0.30859375,492.04729408957064
0.3095703125,493.0974570568651
0.310546875,494.14762002415955
0.3115234375,495.72286447510123
0.3125,497.82319040969014
0.3134765625,500.4485978279263
0.314453125,501.49876079522073
0.3154296875,502.02384227886796
0.31640625,502.02384227886796
0.3173828125,501.49876079522073
0.318359375,500.9736793115735
0.3193359375,498.34827189333737
0.3203125,496.7730274423957
0.3212890625,495.72286447510123
0.322265625,494.14762002415955
0.3232421875,493.0974570568651
0.32421875,490.9971311222762
0.3251953125,489.4218866713345
0.326171875,487.8466422203928
0.3271484375,486.27139776945114
0.328125,485.7463162858039
0.3291015625,485.7463162858039
0.330078125,486.27139776945114
0.3310546875,487.3215607367456
0.33203125,488.8968051876873
0.3330078125,490.47204963862896
0.333984375,492.57237557321787
0.3349609375,494.14762002415955
0.3359375,495.197782991454
0.3369140625,495.72286447510123
0.337890625,496.24794595874846
0.3388671875,496.7730274423957
0.33984375,496.24794595874846
0.3408203125,495.197782991454
0.341796875,495.197782991454
0.3427734375,495.197782991454
0.34375,494.14762002415955
0.3447265625,492.57237557321787
0.345703125,491.5222126059234
0.3466796875,490.47204963862896
0.34765625,490.47204963862896
0.3486328125,489.94696815498173
0.349609375,490.9971311222762
0.3505859375,491.5222126059234
0.3515625,493.0974570568651
0.3525390625,494.14762002415955
0.353515625,495.72286447510123
0.3544921875,497.82319040969014
0.35546875,498.34827189333737
0.3564453125,498.34827189333737
0.357421875,497.82319040969014
0.3583984375,497.82319040969014
0.359375,497.2981089260429
0.3603515625,496.24794595874846
0.361328125,495.72286447510123
0.3623046875,495.72286447510123
0.36328125,495.72286447510123
0.3642578125,494.6727015078068
0.365234375,493.6225385405123
0.3662109375,493.0974570568651
0.3671875,492.57237557321787
0.3681640625,492.04729408957064
0.369140625,491.5222126059234
0.3701171875,491.5222126059234
0.37109375,492.57237557321787
0.3720703125,493.6225385405123
0.373046875,494.14762002415955
0.3740234375,495.197782991454
0.375,496.24794595874846
0.3759765625,497.82319040969014
0.376953125,497.82319040969014
0.3779296875,498.34827189333737
0.37890625,498.8733533769846
0.3798828125,498.8733533769846
0.380859375,498.8733533769846
0.3818359375,499.3984348606318
0.3828125,499.3984348606318
0.3837890625,498.8733533769846
0.384765625,497.2981089260429
0.3857421875,495.72286447510123
0.38671875,494.6727015078068
0.3876953125,493.0974570568651
0.388671875,492.57237557321787
0.3896484375,492.04729408957064
0.390625,492.04729408957064
0.3916015625,492.04729408957064
0.392578125,492.57237557321787
0.3935546875,492.57237557321787
0.39453125,493.0974570568651
0.3955078125,493.6225385405123
0.396484375,493.6225385405123
0.3974609375,494.14762002415955
0.3984375,494.6727015078068
0.3994140625,495.197782991454
0.400390625,495.72286447510123
0.4013671875,496.24794595874846
0.40234375,496.24794595874846
0.4033203125,496.24794595874846
0.404296875,495.72286447510123
0.4052734375,494.6727015078068
0.40625,493.6225385405123
0.4072265625,493.0974570568651
0.408203125,492.57237557321787
0.4091796875,492.57237557321787
0.41015625,493.0974570568651
0.4111328125,493.6225385405123
0.412109375,494.6727015078068
0.4130859375,495.197782991454
0.4140625,496.7730274423957
0.4150390625,497.82319040969014
0.416015625,498.34827189333737
0.4169921875,498.34827189333737
0.41796875,498.8733533769846
0.4189453125,499.3984348606318
0.419921875,499.92351634427905
0.4208984375,499.3984348606318
0.421875,498.8733533769846
0.4228515625,498.34827189333737
0.423828125,496.7730274423957
0.4248046875,494.6727015078068
0.42578125,493.0974570568651
0.4267578125,492.57237557321787
0.427734375,492.04729408957064
0.4287109375,492.04729408957064
0.4296875,492.57237557321787
0.4306640625,493.0974570568651
0.431640625,494.14762002415955
0.4326171875,495.197782991454
0.43359375,495.72286447510123
0.4345703125,496.24794595874846
0.435546875,497.2981089260429
0.4365234375,497.2981089260429
0.4375,497.2981089260429
0.4384765625,497.82319040969014
0.439453125,498.8733533769846
0.4404296875,499.3984348606318
0.44140625,498.34827189333737
0.4423828125,498.34827189333737
0.443359375,497.82319040969014
0.4443359375,496.7730274423957
0.4453125,495.197782991454
0.4462890625,494.14762002415955
0.447265625,493.0974570568651
0.4482421875,492.57237557321787
0.44921875,492.57237557321787
0.4501953125,492.57237557321787
0.451171875,493.0974570568651
0.4521484375,493.6225385405123
0.453125,493.6225385405123
0.4541015625,493.6225385405123
0.455078125,494.6727015078068
0.4560546875,495.72286447510123
0.45703125,496.24794595874846
0.4580078125,497.2981089260429
0.458984375,498.8733533769846
0.4599609375,500.4485978279263
0.4609375,500.4485978279263
0.4619140625,500.4485978279263
0.462890625,500.4485978279263
0.4638671875,499.92351634427905
0.46484375,497.82319040969014
0.4658203125,495.197782991454
0.466796875,493.0974570568651
0.4677734375,492.04729408957064
0.46875,490.9971311222762
0.4697265625,489.4218866713345
0.470703125,489.94696815498173
0.4716796875,490.47204963862896
0.47265625,490.9971311222762
0.4736328125,491.5222126059234
0.474609375,493.0974570568651
0.4755859375,494.14762002415955
0.4765625,495.72286447510123
0.4775390625,496.7730274423957
0.478515625,497.82319040969014
0.4794921875,498.8733533769846
0.48046875,498.8733533769846
0.4814453125,498.8733533769846
0.482421875,498.8733533769846
0.4833984375,497.82319040969014
0.484375,496.24794595874846
0.4853515625,494.6727015078068
0.486328125,492.57237557321787
0.4873046875,491.5222126059234
0.48828125,490.47204963862896
0.4892578125,489.94696815498173
0.490234375,490.47204963862896
0.4912109375,490.9971311222762
0.4921875,491.5222126059234
0.4931640625,492.04729408957064
0.494140625,492.57237557321787
0.4951171875,494.14762002415955
0.49609375,494.6727015078068
0.4970703125,496.7730274423957
0.498046875,498.34827189333737
0.4990234375,500.9736793115735
0.5,502.5489237625152
0.5009765625,503.59908672980964
0.501953125,504.12416821345687
0.5029296875,504.12416821345687
0.50390625,503.0740052461624
0.5048828125,502.02384227886796
0.505859375,499.92351634427905
0.5068359375,498.8733533769846
0.5078125,497.2981089260429
0.5087890625,496.24794595874846
0.509765625,495.197782991454
0.5107421875,494.6727015078068
0.51171875,493.6225385405123
0.5126953125,492.57237557321787
0.513671875,491.5222126059234
0.5146484375,490.47204963862896
0.515625,489.4218866713345
0.5166015625,488.8968051876873
0.517578125,489.4218866713345
0.5185546875,489.94696815498173
0.51953125,490.9971311222762
0.5205078125,492.04729408957064
0.521484375,493.0974570568651
0.5224609375,494.14762002415955
0.5234375,494.6727015078068
0.5244140625,495.197782991454
0.525390625,495.197782991454
0.5263671875,495.197782991454
0.52734375,495.72286447510123
0.5283203125,496.24794595874846
0.529296875,496.7730274423957
0.5302734375,497.2981089260429
0.53125,497.2981089260429
0.5322265625,495.72286447510123
0.533203125,495.197782991454
0.5341796875,494.14762002415955
0.53515625,493.6225385405123
0.5361328125,492.57237557321787
0.537109375,492.57237557321787
0.5380859375,493.0974570568651
0.5390625,493.0974570568651
0.5400390625,494.6727015078068
0.541015625,495.72286447510123
0.5419921875,496.24794595874846
0.54296875,496.7730274423957
0.5439453125,496.7730274423957
0.544921875,497.2981089260429
0.5458984375,497.2981089260429
0.546875,497.82319040969014
0.5478515625,497.82319040969014
0.548828125,497.82319040969014
0.5498046875,497.2981089260429
0.55078125,496.24794595874846
0.5517578125,495.197782991454
0.552734375,493.6225385405123
0.5537109375,492.57237557321787
0.5546875,490.9971311222762
0.5556640625,490.47204963862896
0.556640625,490.47204963862896
0.5576171875,490.47204963862896
0.55859375,491.5222126059234
0.5595703125,492.57237557321787
0.560546875,493.6225385405123
0.5615234375,494.6727015078068
0.5625,495.72286447510123
0.5634765625,495.72286447510123
0.564453125,495.72286447510123
0.5654296875,496.24794595874846
0.56640625,496.7730274423957
0.5673828125,497.2981089260429
0.568359375,497.82319040969014
0.5693359375,498.34827189333737
0.5703125,498.34827189333737
0.5712890625,497.82319040969014
0.572265625,497.2981089260429
0.5732421875,496.24794595874846
0.57421875,495.72286447510123
0.5751953125,495.197782991454
0.576171875,495.197782991454
0.5771484375,495.72286447510123
0.578125,496.24794595874846
0.5791015625,497.2981089260429
0.580078125,497.82319040969014
0.5810546875,497.2981089260429
0.58203125,496.24794595874846
0.5830078125,494.6727015078068
0.583984375,493.6225385405123
0.5849609375,492.04729408957064
0.5859375,491.5222126059234
0.5869140625,490.9971311222762
0.587890625,492.04729408957064
0.5888671875,492.57237557321787
0.58984375,493.6225385405123
0.5908203125,494.6727015078068
0.591796875,495.197782991454
0.5927734375,495.197782991454
0.59375,494.6727015078068
0.5947265625,494.14762002415955
0.595703125,494.14762002415955
0.5966796875,494.6727015078068
0.59765625,494.6727015078068
0.5986328125,495.197782991454
0.599609375,495.72286447510123
0.6005859375,495.72286447510123
0.6015625,494.6727015078068
0.6025390625,493.6225385405123
0.603515625,493.0974570568651
0.6044921875,494.14762002415955
0.60546875,494.14762002415955
0.6064453125,494.6727015078068
0.607421875,496.24794595874846
0.6083984375,497.2981089260429
0.609375,497.82319040969014
0.6103515625,497.82319040969014
0.611328125,497.82319040969014
0.6123046875,497.2981089260429
0.61328125,495.197782991454
0.6142578125,493.0974570568651
0.615234375,492.04729408957064
0.6162109375,491.5222126059234
0.6171875,491.5222126059234
0.6181640625,492.04729408957064
0.619140625,493.0974570568651
0.6201171875,494.14762002415955
0.62109375,493.6225385405123
0.6220703125,493.0974570568651
0.623046875,492.57237557321787
0.6240234375,492.04729408957064
0.625,491.5222126059234
0.6259765625,490.9971311222762
0.626953125,490.47204963862896
0.6279296875,490.9971311222762
0.62890625,492.04729408957064
0.6298828125,492.04729408957064
0.630859375,493.6225385405123
0.6318359375,494.14762002415955
0.6328125,494.6727015078068
0.6337890625,494.14762002415955
0.634765625,494.14762002415955
0.6357421875,495.197782991454
0.63671875,494.6727015078068
0.6376953125,494.6727015078068
0.638671875,494.14762002415955
0.6396484375,494.14762002415955
0.640625,494.6727015078068
