Time (s),Distance
0.0,305.64336739480495
0.0009765625,304.5932044275105
0.001953125,301.96779700927436
0.0029296875,299.86747107468545
0.00390625,298.817308107391
0.0048828125,298.2922266237438
0.005859375,298.817308107391
0.0068359375,301.44271552562714
0.0078125,304.5932044275105
0.0087890625,306.6935303620994
0.009765625,309.31893778033555
0.0107421875,310.36910074763
0.01171875,311.9443451985717
0.0126953125,315.09483410045505
0.013671875,318.77040448598564
0.0146484375,323.4961378388107
0.015625,329.2720341589302
0.0166015625,334.52284899540246
0.017578125,337.1482564136386
0.0185546875,339.2485823482275
0.01953125,338.7235008645803
0.0205078125,335.0479304790497
0.021484375,329.7971156425774
0.0224609375,325.5964637733996
0.0234375,321.3958119042218
0.0244140625,316.1449970677495
0.025390625,312.99450816586614
0.0263671875,310.36910074763
0.02734375,307.74369332939386
0.0283203125,304.5932044275105
0.029296875,300.3925525583327
0.0302734375,296.19190068915486
0.03125,291.99124881997705
0.0322265625,291.4661673363298
0.033203125,293.0414117872715
0.0341796875,293.0414117872715
0.03515625,294.6166562382132
0.0361328125,296.7169821728021
0.037109375,299.86747107468545
0.0380859375,303.0179599765688
0.0390625,306.6935303620994
0.0400390625,308.7938562966883
0.041015625,308.7938562966883
0.0419921875,309.31893778033555
0.04296875,310.36910074763
0.0439453125,311.9443451985717
0.044921875,314.0446711331606
0.0458984375,314.0446711331606
0.046875,309.8440192639828
0.0478515625,305.1182859111577
0.048828125,302.4928784929216
0.0498046875,300.9176340419799
0.05078125,301.96779700927436
0.0517578125,304.0681229438633
0.052734375,306.1684488784522
0.0537109375,304.5932044275105
0.0546875,306.6935303620994
0.0556640625,309.31893778033555
0.056640625,310.36910074763
0.0576171875,313.51958964951336
0.05859375,320.3456489369273
0.0595703125,324.54630080610514
0.060546875,322.97105635516346
0.0615234375,321.920893387869
0.0625,320.3456489369273
0.0634765625,317.19516003504395
0.064453125,312.4694266822189
0.0654296875,308.7938562966883
0.06640625,307.21861184574664
0.0673828125,306.1684488784522
0.068359375,307.21861184574664
0.0693359375,307.74369332939386
0.0703125,307.74369332939386
0.0712890625,305.1182859111577
0.072265625,303.0179599765688
0.0732421875,303.54304146021605
0.07421875,305.64336739480495
0.0751953125,308.7938562966883
0.076171875,312.99450816586614
0.0771484375,315.6199155841023
0.078125,314.0446711331606
0.0791015625,310.36910074763
0.080078125,309.8440192639828
0.0810546875,308.2687748130411
0.08203125,306.1684488784522
0.0830078125,304.5932044275105
0.083984375,304.5932044275105
0.0849609375,301.96779700927436
0.0859375,297.76714514009655
0.0869140625,298.817308107391
0.087890625,301.44271552562714
0.0888671875,304.0681229438633
0.08984375,305.64336739480495
0.0908203125,308.7938562966883
0.091796875,309.31893778033555
0.0927734375,311.9443451985717
0.09375,311.9443451985717
0.0947265625,310.8941822312772
0.095703125,309.8440192639828
0.0966796875,309.8440192639828
0.09765625,308.7938562966883
0.0986328125,303.54304146021605
0.099609375,303.54304146021605
0.1005859375,303.0179599765688
0.1015625,302.4928784929216
0.1025390625,301.96779700927436
0.103515625,301.44271552562714
0.1044921875,300.3925525583327
0.10546875,299.86747107468545
0.1064453125,300.3925525583327
0.107421875,300.9176340419799
0.1083984375,300.9176340419799
0.109375,301.96779700927436
0.1103515625,304.0681229438633
0.111328125,305.64336739480495
0.1123046875,307.74369332939386
0.11328125,307.21861184574664
0.1142578125,307.74369332939386
0.115234375,307.74369332939386
0.1162109375,306.6935303620994
0.1171875,307.74369332939386
0.1181640625,308.2687748130411
0.119140625,309.8440192639828
0.1201171875,309.31893778033555
0.12109375,307.74369332939386
0.1220703125,307.21861184574664
0.123046875,307.21861184574664
0.1240234375,306.1684488784522
0.125,304.5932044275105
0.1259765625,303.54304146021605
0.126953125,301.96779700927436
0.1279296875,301.44271552562714
0.12890625,301.44271552562714
0.1298828125,300.9176340419799
0.130859375,301.96779700927436
0.1318359375,303.54304146021605
0.1328125,303.54304146021605
0.1337890625,303.54304146021605
0.134765625,305.1182859111577
0.1357421875,306.6935303620994
0.13671875,307.21861184574664
0.1376953125,309.31893778033555
0.138671875,312.99450816586614
0.1396484375,312.99450816586614
0.140625,309.8440192639828
0.1416015625,308.7938562966883
0.142578125,307.74369332939386
0.1435546875,305.1182859111577
0.14453125,304.0681229438633
0.1455078125,304.5932044275105
0.146484375,303.0179599765688
0.1474609375,301.44271552562714
0.1484375,302.4928784929216
0.1494140625,304.5932044275105
0.150390625,305.64336739480495
0.1513671875,307.21861184574664
0.15234375,308.2687748130411
0.1533203125,309.8440192639828
0.154296875,311.9443451985717
0.1552734375,315.6199155841023
0.15625,319.29548596963286
0.1572265625,324.0212193224579
0.158203125,329.7971156425774
0.1591796875,335.0479304790497
0.16015625,340.8238267991692
0.1611328125,344.4993971846998
0.162109375,344.4993971846998
0.1630859375,341.87398976646364
0.1640625,337.1482564136386
0.1650390625,331.3723600935191
0.166015625,326.1215452570468
0.1669921875,322.97105635516346
0.16796875,322.4459748715162
0.1689453125,321.3958119042218
0.169921875,320.87073042057455
0.1708984375,317.7202415186912
0.171875,313.51958964951336
0.1728515625,306.6935303620994
0.173828125,303.0179599765688
0.1748046875,301.96779700927436
0.17578125,301.96779700927436
0.1767578125,302.4928784929216
0.177734375,303.54304146021605
0.1787109375,303.54304146021605
0.1796875,301.96779700927436
0.1806640625,304.5932044275105
0.181640625,307.74369332939386
0.1826171875,311.9443451985717
0.18359375,315.09483410045505
0.1845703125,315.6199155841023
0.185546875,311.41926371492445
0.1865234375,309.8440192639828
0.1875,310.36910074763
0.1884765625,309.8440192639828
0.189453125,309.8440192639828
0.1904296875,310.8941822312772
0.19140625,311.41926371492445
0.1923828125,307.21861184574664
0.193359375,306.1684488784522
0.1943359375,305.1182859111577
0.1953125,304.5932044275105
0.1962890625,303.54304146021605
0.197265625,303.0179599765688
0.1982421875,303.54304146021605
0.19921875,301.96779700927436
0.2001953125,303.0179599765688
0.201171875,304.0681229438633
0.2021484375,304.0681229438633
0.203125,305.64336739480495
0.2041015625,306.1684488784522
0.205078125,305.1182859111577
0.2060546875,304.5932044275105
0.20703125,307.21861184574664
0.2080078125,306.6935303620994
0.208984375,306.1684488784522
0.2099609375,305.64336739480495
0.2109375,304.5932044275105
0.2119140625,303.54304146021605
0.212890625,303.54304146021605
0.2138671875,303.54304146021605
0.21484375,303.0179599765688
0.2158203125,303.0179599765688
0.216796875,303.54304146021605
0.2177734375,304.5932044275105
0.21875,307.21861184574664
0.2197265625,309.8440192639828
0.220703125,311.41926371492445
0.2216796875,310.8941822312772
0.22265625,311.41926371492445
0.2236328125,310.8941822312772
0.224609375,309.8440192639828
0.2255859375,307.74369332939386
0.2265625,305.64336739480495
0.2275390625,304.5932044275105
0.228515625,304.0681229438633
0.2294921875,304.5932044275105
0.23046875,304.0681229438633
0.2314453125,306.1684488784522
0.232421875,307.74369332939386
0.2333984375,308.2687748130411
0.234375,308.2687748130411
0.2353515625,309.31893778033555
0.236328125,309.8440192639828
0.2373046875,310.36910074763
0.23828125,314.0446711331606
0.2392578125,319.8205674532801
0.240234375,324.54630080610514
0.2412109375,324.0212193224579
0.2421875,321.3958119042218
0.2431640625,316.1449970677495
0.244140625,305.64336739480495
0.2451171875,303.0179599765688
0.24609375,305.1182859111577
0.2470703125,308.2687748130411
0.248046875,306.1684488784522
0.2490234375,304.5932044275105
0.25,302.4928784929216
0.2509765625,300.9176340419799
0.251953125,302.4928784929216
0.2529296875,306.1684488784522
0.25390625,311.41926371492445
0.2548828125,314.0446711331606
0.255859375,314.5697526168078
0.2568359375,311.9443451985717
0.2578125,314.0446711331606
0.2587890625,316.6700785513967
0.259765625,316.6700785513967
0.2607421875,317.7202415186912
0.26171875,318.77040448598564
0.2626953125,318.2453230023384
0.263671875,314.0446711331606
0.2646484375,306.1684488784522
0.265625,302.4928784929216
0.2666015625,299.3423895910382
0.267578125,299.3423895910382
0.2685546875,298.2922266237438
0.26953125,297.2420636564493
0.2705078125,295.1417377218604
0.271484375,295.1417377218604
0.2724609375,297.2420636564493
0.2734375,299.3423895910382
0.2744140625,303.54304146021605
0.275390625,308.2687748130411
0.2763671875,310.8941822312772
0.27734375,311.41926371492445
0.2783203125,315.6199155841023
0.279296875,319.8205674532801
0.2802734375,323.4961378388107
0.28125,328.2218711916357
0.2822265625,331.8974415771663
0.283203125,335.5730119626969
0.2841796875,335.0479304790497
0.28515625,333.9977675117552
0.2861328125,330.32219712622464
0.287109375,325.07138228975236
0.2880859375,319.29548596963286
0.2890625,312.4694266822189
0.2900390625,309.8440192639828
0.291015625,308.7938562966883
0.2919921875,308.2687748130411
0.29296875,306.6935303620994
0.2939453125,305.64336739480495
0.294921875,301.44271552562714
0.2958984375,296.19190068915486
0.296875,295.66681920550764
0.2978515625,296.19190068915486
0.298828125,297.76714514009655
0.2998046875,300.3925525583327
0.30078125,302.4928784929216
0.3017578125,302.4928784929216
0.302734375,305.64336739480495
0.3037109375,309.31893778033555
0.3046875,310.36910074763
0.3056640625,309.8440192639828
0.306640625,308.7938562966883
0.3076171875,306.6935303620994
0.30859375,306.1684488784522
0.3095703125,307.21861184574664
0.310546875,308.2687748130411
0.3115234375,305.1182859111577
0.3125,302.4928784929216
0.3134765625,300.3925525583327
0.314453125,300.9176340419799
0.3154296875,301.96779700927436
0.31640625,303.54304146021605
0.3173828125,305.64336739480495
0.318359375,307.21861184574664
0.3193359375,308.7938562966883
0.3203125,310.36910074763
0.3212890625,312.4694266822189
0.322265625,313.51958964951336
0.3232421875,313.51958964951336
0.32421875,313.51958964951336
0.3251953125,312.99450816586614
0.326171875,310.36910074763
0.3271484375,307.21861184574664
0.328125,307.21861184574664
0.3291015625,307.21861184574664
0.330078125,308.7938562966883
0.3310546875,309.8440192639828
0.33203125,310.8941822312772
0.3330078125,310.8941822312772
0.333984375,308.2687748130411
0.3349609375,305.64336739480495
0.3359375,304.0681229438633
0.3369140625,303.54304146021605
0.337890625,302.4928784929216
0.3388671875,302.4928784929216
0.33984375,302.4928784929216
0.3408203125,300.3925525583327
0.341796875,298.817308107391
0.3427734375,297.2420636564493
0.34375,296.19190068915486
0.3447265625,297.2420636564493
0.345703125,299.86747107468545
0.3466796875,301.96779700927436
0.34765625,304.5932044275105
0.3486328125,308.2687748130411
0.349609375,312.4694266822189
0.3505859375,315.09483410045505
0.3515625,318.2453230023384
0.3525390625,321.3958119042218
0.353515625,324.54630080610514
0.3544921875,327.6967897079885
0.35546875,329.7971156425774
0.3564453125,329.7971156425774
0.357421875,325.07138228975236
0.3583984375,318.77040448598564
0.359375,310.36910074763
0.3603515625,305.64336739480495
0.361328125,307.74369332939386
0.3623046875,309.31893778033555
0.36328125,309.8440192639828
0.3642578125,308.7938562966883
0.365234375,306.6935303620994
0.3662109375,301.96779700927436
0.3671875,303.54304146021605
0.3681640625,309.8440192639828
0.369140625,319.29548596963286
0.3701171875,326.1215452570468
0.37109375,328.2218711916357
0.3720703125,327.6967897079885
0.373046875,322.97105635516346
0.3740234375,320.3456489369273
0.375,319.29548596963286
0.3759765625,322.4459748715162
0.376953125,329.2720341589302
0.3779296875,335.5730119626969
0.37890625,339.7736638318747
0.3798828125,337.1482564136386
0.380859375,330.32219712622464
0.3818359375,319.29548596963286
0.3828125,307.21861184574664
0.3837890625,301.44271552562714
0.384765625,301.96779700927436
0.3857421875,304.0681229438633
0.38671875,304.0681229438633
0.3876953125,300.9176340419799
0.388671875,295.66681920550764
0.3896484375,293.5664932709187
0.390625,295.66681920550764
0.3916015625,299.3423895910382
0.392578125,305.1182859111577
0.3935546875,312.4694266822189
0.39453125,315.6199155841023
0.3955078125,314.0446711331606
0.396484375,317.7202415186912
0.3974609375,322.97105635516346
0.3984375,325.07138228975236
0.3994140625,324.54630080610514
0.400390625,325.07138228975236
0.4013671875,327.6967897079885
0.40234375,325.07138228975236
0.4033203125,320.3456489369273
0.404296875,316.1449970677495
0.4052734375,309.31893778033555
0.40625,298.817308107391
0.4072265625,296.7169821728021
0.408203125,299.3423895910382
0.4091796875,300.9176340419799
0.41015625,301.96779700927436
0.4111328125,303.54304146021605
0.412109375,303.0179599765688
0.4130859375,303.0179599765688
0.4140625,308.7938562966883
0.4150390625,314.0446711331606
0.416015625,318.2453230023384
0.4169921875,320.87073042057455
0.41796875,321.920893387869
0.4189453125,318.77040448598564
0.419921875,314.5697526168078
0.4208984375,314.0446711331606
0.421875,314.0446711331606
0.4228515625,311.41926371492445
0.423828125,308.7938562966883
0.4248046875,306.1684488784522
0.42578125,300.9176340419799
0.4267578125,298.817308107391
0.427734375,299.86747107468545
0.4287109375,301.96779700927436
0.4296875,303.0179599765688
0.4306640625,302.4928784929216
0.431640625,301.96779700927436
0.4326171875,301.96779700927436
0.43359375,304.5932044275105
0.4345703125,308.7938562966883
0.435546875,314.5697526168078
0.4365234375,319.29548596963286
0.4375,321.3958119042218
0.4384765625,320.87073042057455
0.439453125,320.3456489369273
0.4404296875,320.3456489369273
0.44140625,316.1449970677495
0.4423828125,309.31893778033555
0.443359375,307.74369332939386
0.4443359375,307.74369332939386
0.4453125,307.74369332939386
0.4462890625,308.2687748130411
0.447265625,309.31893778033555
0.4482421875,310.36910074763
0.44921875,304.0681229438633
0.4501953125,303.0179599765688
0.451171875,303.54304146021605
0.4521484375,304.0681229438633
0.453125,307.74369332939386
0.4541015625,308.7938562966883
0.455078125,309.31893778033555
0.4560546875,307.74369332939386
0.45703125,309.31893778033555
0.4580078125,310.8941822312772
0.458984375,311.9443451985717
0.4599609375,317.7202415186912
0.4609375,322.97105635516346
0.4619140625,326.64662674069405
0.462890625,327.1717082243413
0.4638671875,328.74695267528296
0.46484375,327.1717082243413
0.4658203125,320.3456489369273
0.466796875,313.51958964951336
0.4677734375,308.2687748130411
0.46875,305.64336739480495
0.4697265625,301.44271552562714
0.470703125,299.3423895910382
0.4716796875,298.2922266237438
0.47265625,296.7169821728021
0.4736328125,296.19190068915486
0.474609375,298.2922266237438
0.4755859375,300.9176340419799
0.4765625,303.0179599765688
0.4775390625,305.1182859111577
0.478515625,306.1684488784522
0.4794921875,307.74369332939386
0.48046875,309.31893778033555
0.4814453125,310.8941822312772
0.482421875,311.41926371492445
0.4833984375,308.7938562966883
0.484375,304.5932044275105
0.4853515625,300.3925525583327
0.486328125,296.7169821728021
0.4873046875,292.5163303036243
0.48828125,290.41600436903536
0.4892578125,289.3658414017409
0.490234375,290.41600436903536
0.4912109375,291.99124881997705
0.4921875,296.19190068915486
0.4931640625,301.96779700927436
0.494140625,306.6935303620994
0.4951171875,309.8440192639828
0.49609375,312.4694266822189
0.4970703125,316.1449970677495
0.498046875,322.97105635516346
0.4990234375,332.9476045444608
0.5,343.4492342174053
0.5009765625,351.85053795576096
0.501953125,352.3756194394082
0.5029296875,342.9241527337581
0.50390625,330.84727860987186
0.5048828125,319.29548596963286
0.505859375,310.36910074763
0.5068359375,307.21861184574664
0.5078125,310.8941822312772
0.5087890625,315.09483410045505
0.509765625,312.4694266822189
0.5107421875,305.1182859111577
0.51171875,301.44271552562714
0.5126953125,298.2922266237438
0.513671875,298.817308107391
0.5146484375,301.96779700927436
0.515625,309.31893778033555
0.5166015625,314.5697526168078
0.517578125,314.5697526168078
0.5185546875,315.6199155841023
0.51953125,316.6700785513967
0.5205078125,318.2453230023384
0.521484375,315.6199155841023
0.5224609375,313.51958964951336
0.5234375,312.4694266822189
0.5244140625,307.21861184574664
0.525390625,300.9176340419799
0.5263671875,297.2420636564493
0.52734375,295.1417377218604
0.5283203125,293.5664932709187
0.529296875,295.66681920550764
0.5302734375,298.817308107391
0.53125,300.3925525583327
0.5322265625,303.0179599765688
0.533203125,305.1182859111577
0.5341796875,308.2687748130411
0.53515625,311.41926371492445
0.5361328125,315.6199155841023
0.537109375,321.3958119042218
0.5380859375,324.0212193224579
0.5390625,325.5964637733996
0.5400390625,326.64662674069405
0.541015625,324.54630080610514
0.5419921875,317.7202415186912
0.54296875,308.2687748130411
0.5439453125,306.1684488784522
0.544921875,303.54304146021605
0.5458984375,300.9176340419799
0.546875,298.817308107391
0.5478515625,296.19190068915486
0.548828125,291.99124881997705
0.5498046875,289.3658414017409
0.55078125,289.3658414017409
0.5517578125,290.41600436903536
0.552734375,293.5664932709187
0.5537109375,296.7169821728021
0.5546875,300.3925525583327
0.5556640625,304.0681229438633
0.556640625,307.21861184574664
0.5576171875,307.21861184574664
0.55859375,309.31893778033555
0.5595703125,312.99450816586614
0.560546875,318.2453230023384
0.5615234375,323.4961378388107
0.5625,330.84727860987186
0.5634765625,335.0479304790497
0.564453125,332.9476045444608
0.5654296875,328.2218711916357
0.56640625,318.77040448598564
0.5673828125,307.74369332939386
0.568359375,302.4928784929216
0.5693359375,300.9176340419799
0.5703125,299.3423895910382
0.5712890625,297.76714514009655
0.572265625,295.66681920550764
0.5732421875,292.5163303036243
0.57421875,294.6166562382132
0.5751953125,300.3925525583327
0.576171875,305.1182859111577
0.5771484375,308.2687748130411
0.578125,310.8941822312772
0.5791015625,311.41926371492445
0.580078125,314.5697526168078
0.5810546875,322.97105635516346
0.58203125,337.1482564136386
0.5830078125,347.1248046029359
0.583984375,354.4759453739971
0.5849609375,359.20167872682214
0.5859375,360.7769231777638
0.5869140625,357.62643427588046
0.587890625,350.2752935048193
0.5888671875,344.4993971846998
0.58984375,338.7235008645803
0.5908203125,329.2720341589302
0.591796875,319.29548596963286
0.5927734375,315.09483410045505
0.59375,312.4694266822189
0.5947265625,305.64336739480495
0.595703125,301.44271552562714
0.5966796875,299.3423895910382
0.59765625,295.66681920550764
0.5986328125,291.4661673363298
0.599609375,295.66681920550764
0.6005859375,300.9176340419799
0.6015625,305.1182859111577
0.6025390625,309.8440192639828
0.603515625,313.51958964951336
0.6044921875,314.5697526168078
0.60546875,315.09483410045505
0.6064453125,319.8205674532801
0.607421875,329.2720341589302
0.6083984375,339.2485823482275
0.609375,348.7000490538776
0.6103515625,356.0511898249388
0.611328125,360.2518416941166
0.6123046875,357.62643427588046
0.61328125,350.8003749884665
0.6142578125,342.39907125011086
0.615234375,333.9977675117552
0.6162109375,328.2218711916357
0.6171875,323.4961378388107
0.6181640625,320.87073042057455
0.619140625,314.5697526168078
0.6201171875,303.0179599765688
0.62109375,296.19190068915486
0.6220703125,293.0414117872715
0.623046875,293.0414117872715
0.6240234375,293.0414117872715
0.625,294.6166562382132
0.6259765625,295.66681920550764
0.626953125,296.7169821728021
0.6279296875,301.96779700927436
0.62890625,310.36910074763
0.6298828125,319.29548596963286
0.630859375,326.64662674069405
0.6318359375,332.42252306081355
0.6328125,336.09809344634414
0.6337890625,339.7736638318747
0.634765625,344.4993971846998
0.6357421875,348.17496757023036
0.63671875,349.2251305375248
0.6376953125,348.17496757023036
0.638671875,344.4993971846998
0.6396484375,337.1482564136386
0.640625,324.0212193224579
0.6416015625,310.36910074763
0.642578125,304.0681229438633
