Time (s),Distance
0.0,347.64988608658314
0.0009765625,363.9274120796472
0.001953125,382.30526400730014
0.0029296875,409.08441967330873
0.00390625,433.7632494047284
0.0048828125,457.91699765250087
0.005859375,479.4453384820372
0.0068359375,493.6225385405123
0.0078125,506.749575631693
0.0087890625,517.2512053046376
0.009765625,526.7026720102876
0.0107421875,528.8029979448766
0.01171875,523.5521831084043
0.0126953125,518.301368271932
0.013671875,510.4251460172236
0.0146484375,502.02384227886796
0.015625,494.14762002415955
0.0166015625,488.8968051876873
0.017578125,482.59582738392055
0.0185546875,471.5691162273288
0.01953125,456.3417532015592
0.0205078125,437.96390127390623
0.021484375,416.96064192801714
0.0224609375,393.85705664753914
0.0234375,369.17822691611946
0.0244140625,349.2251305375248
0.025390625,330.32219712622464
0.0263671875,318.2453230023384
0.02734375,308.7938562966883
0.0283203125,301.96779700927436
0.029296875,295.1417377218604
0.0302734375,285.6902710162103
0.03125,283.0648635979742
0.0322265625,280.43945617973804
0.033203125,282.0147006306797
0.0341796875,291.4661673363298
0.03515625,299.86747107468545
0.0361328125,304.5932044275105
0.037109375,306.6935303620994
0.0380859375,311.9443451985717
0.0390625,316.6700785513967
0.0400390625,320.3456489369273
0.041015625,332.42252306081355
0.0419921875,346.07464163564146
0.04296875,362.3521676287055
0.0439453125,376.0042862035334
0.044921875,388.60624181106687
0.0458984375,399.63295296765864
0.046875,405.93393077142537
0.0478515625,412.7599900588393
0.048828125,418.5358863789588
0.0498046875,421.6863752808422
0.05078125,419.06096786260605
0.0517578125,414.86031599342823
0.052734375,411.18474560789764
0.0537109375,409.08441967330873
0.0546875,411.18474560789764
0.0556640625,417.48572341166437
0.056640625,419.06096786260605
0.0576171875,415.38539747707546
0.05859375,408.0342567060143
0.0595703125,399.1078714840114
0.060546875,385.98083439283073
0.0615234375,373.3788787852973
0.0625,368.65314543247223
0.0634765625,369.17822691611946
0.064453125,374.42904175259173
0.0654296875,379.1547751054168
0.06640625,383.3554269745946
0.0673828125,384.9306714255363
0.068359375,381.7801825236529
0.0693359375,386.50591587647796
0.0703125,397.0075455494225
0.0712890625,409.08441967330873
0.072265625,428.51243456825614
0.0732421875,451.61601984873414
0.07421875,470.5189532600343
0.0751953125,479.9704199656844
0.076171875,485.7463162858039
0.0771484375,488.8968051876873
0.078125,487.8466422203928
0.0791015625,485.7463162858039
0.080078125,489.94696815498173
0.0810546875,500.4485978279263
0.08203125,509.37498304992914
0.0830078125,513.0505534354597
0.083984375,509.90006453357637
0.0849609375,500.4485978279263
0.0859375,488.8968051876873
0.0869140625,480.49550144933164
0.087890625,475.24468661285937
0.0888671875,472.61927919462323
0.08984375,469.9938717763871
0.0908203125,463.16781248897314
0.091796875,446.36520501226187
0.0927734375,429.5625975355506
0.09375,415.38539747707546
0.0947265625,402.783441869542
0.095703125,390.7065677456558
0.0966796875,385.98083439283073
0.09765625,385.98083439283073
0.0986328125,378.62969362176955
0.099609375,366.0277380142361
0.1005859375,354.4759453739971
0.1015625,346.07464163564146
0.1025390625,340.29874531552196
0.103515625,338.7235008645803
0.1044921875,348.17496757023036
0.10546875,361.30200466141105
0.1064453125,368.128063948825
0.107421875,370.75347136706114
0.1083984375,372.3287158180028
0.109375,374.42904175259173
0.1103515625,378.1046121381223
0.111328125,382.83034549094737
0.1123046875,395.4323010984808
0.11328125,409.08441967330873
0.1142578125,421.16129379719496
0.115234375,427.4622716009617
0.1162109375,427.9873530846089
0.1171875,427.4622716009617
0.1181640625,424.83686418272555
0.119140625,425.88702715002
0.1201171875,430.0876790191978
0.12109375,433.2381679210812
0.1220703125,434.28833088837564
0.123046875,425.88702715002
0.1240234375,411.70982709154487
0.125,392.8068936802447
0.1259765625,376.52936768718064
0.126953125,368.128063948825
0.1279296875,365.50265653058887
0.12890625,372.85379730165005
0.1298828125,381.7801825236529
0.130859375,385.98083439283073
0.1318359375,382.30526400730014
0.1328125,373.3788787852973
0.1337890625,364.97757504694164
0.134765625,359.20167872682214
0.1357421875,362.87724911235273
0.13671875,373.3788787852973
0.1376953125,388.60624181106687
0.138671875,405.40884928777814
0.1396484375,417.48572341166437
0.140625,422.73653824813664
0.1416015625,419.5860493462533
0.142578125,414.86031599342823
0.1435546875,419.5860493462533
0.14453125,435.3384938556701
0.1455078125,456.8668346852064
0.146484375,478.92025699838996
0.1474609375,493.0974570568651
0.1484375,494.14762002415955
0.1494140625,484.69615331850946
0.150390625,471.5691162273288
0.1513671875,464.7430569399148
0.15234375,466.84338287450373
0.1533203125,476.81993106380105
0.154296875,486.79647925309837
0.1552734375,490.9971311222762
0.15625,487.3215607367456
0.1572265625,474.1945236455649
0.158203125,453.1912642996758
0.1591796875,435.8635753393173
0.16015625,425.88702715002
0.1611328125,424.3117826990783
0.162109375,424.83686418272555
0.1630859375,424.3117826990783
0.1640625,420.1111308299005
0.1650390625,407.50917522236705
0.166015625,389.1313232947141
0.1669921875,369.17822691611946
0.16796875,358.1515157595277
0.1689453125,356.0511898249388
0.169921875,360.7769231777638
0.1708984375,369.17822691611946
0.171875,374.95412323623896
0.1728515625,379.1547751054168
0.173828125,374.95412323623896
0.1748046875,367.6029824651778
0.17578125,364.97757504694164
0.1767578125,371.27855285070837
0.177734375,384.9306714255363
0.1787109375,401.2081974186003
0.1796875,419.06096786260605
0.1806640625,431.6629234701395
0.181640625,433.7632494047284
0.1826171875,427.9873530846089
0.18359375,422.2114567644894
0.1845703125,424.3117826990783
0.185546875,426.41210863366723
0.1865234375,432.18800495378673
0.1875,440.06422720849514
0.1884765625,443.2147161103785
0.189453125,439.0140642412007
0.1904296875,425.88702715002
0.19140625,417.48572341166437
0.1923828125,412.7599900588393
0.193359375,403.83360483683646
0.1943359375,398.05770851671696
0.1953125,392.8068936802447
0.1962890625,386.50591587647796
0.197265625,379.1547751054168
0.1982421875,372.3287158180028
0.19921875,370.2283898834139
0.2001953125,371.27855285070837
0.201171875,371.27855285070837
0.2021484375,368.65314543247223
0.203125,366.5528194978833
0.2041015625,362.87724911235273
0.205078125,359.20167872682214
0.2060546875,354.4759453739971
0.20703125,355.0010268576443
0.2080078125,352.9007009230554
0.208984375,350.2752935048193
0.2099609375,344.4993971846998
0.2109375,341.87398976646364
0.2119140625,343.97431570105255
0.212890625,345.024478668347
0.2138671875,353.42578240670264
0.21484375,369.17822691611946
0.2158203125,385.4557529091835
0.216796875,402.2583603858948
0.2177734375,416.96064192801714
0.21875,431.6629234701395
0.2197265625,440.06422720849514
0.220703125,442.6896346267313
0.2216796875,451.61601984873414
0.22265625,461.59256803803146
0.2236328125,469.46879029273987
0.224609375,474.1945236455649
0.2255859375,481.5456644166261
0.2265625,489.4218866713345
0.2275390625,487.3215607367456
0.228515625,482.0707459002733
0.2294921875,472.61927919462323
0.23046875,459.49224210344255
0.2314453125,440.58930869214237
0.232421875,420.63621231354773
0.2333984375,407.50917522236705
0.234375,395.95738258212805
0.2353515625,383.3554269745946
0.236328125,373.3788787852973
0.2373046875,369.17822691611946
0.23828125,368.128063948825
0.2392578125,363.9274120796472
0.240234375,362.3521676287055
0.2412109375,365.50265653058887
0.2421875,369.7033083997667
0.2431640625,373.3788787852973
0.244140625,371.8036343343556
0.2451171875,373.9039602689445
0.24609375,376.0042862035334
0.2470703125,377.05444917082787
0.248046875,378.1046121381223
0.2490234375,381.7801825236529
0.25,387.5560788437724
0.2509765625,392.8068936802447
0.251953125,398.05770851671696
0.2529296875,405.40884928777814
0.25390625,411.70982709154487
0.2548828125,416.96064192801714
0.255859375,425.3619456663728
0.2568359375,431.6629234701395
0.2578125,436.9137383066118
0.2587890625,439.5391457248479
0.259765625,440.06422720849514
0.2607421875,438.48898275755346
0.26171875,431.1378419864923
0.2626953125,424.3117826990783
0.263671875,416.4355604443699
0.2646484375,411.18474560789764
0.265625,411.18474560789764
0.2666015625,409.08441967330873
0.267578125,404.8837678041309
0.2685546875,395.4323010984808
0.26953125,378.1046121381223
0.2705078125,356.576271308586
0.271484375,334.52284899540246
0.2724609375,315.6199155841023
0.2734375,309.8440192639828
0.2744140625,312.4694266822189
0.275390625,316.1449970677495
0.2763671875,318.77040448598564
0.27734375,317.19516003504395
0.2783203125,311.9443451985717
0.279296875,300.9176340419799
0.2802734375,297.76714514009655
0.28125,303.54304146021605
0.2822265625,316.6700785513967
0.283203125,330.32219712622464
0.2841796875,341.3489082828164
0.28515625,350.8003749884665
0.2861328125,356.576271308586
0.287109375,361.8270861450583
0.2880859375,371.27855285070837
0.2890625,388.08116032741964
0.2900390625,408.0342567060143
0.291015625,426.93719011731446
0.2919921875,445.3150420449674
0.29296875,463.16781248897314
0.2939453125,473.14436067827046
0.294921875,478.92025699838996
0.2958984375,484.69615331850946
0.296875,490.9971311222762
0.2978515625,498.8733533769846
0.298828125,506.749575631693
0.2998046875,516.7261238209903
0.30078125,525.127427559346
0.3017578125,529.853160912171
0.302734375,534.0538127813488
0.3037109375,538.2544646505266
0.3046875,539.8297091014683
0.3056640625,537.2043016832322
0.306640625,531.4284053631127
0.3076171875,527.2277534939349
0.30859375,518.301368271932
0.3095703125,507.79973859898746
0.310546875,496.24794595874846
0.3115234375,487.8466422203928
0.3125,474.71960512921214
0.3134765625,455.81667171791196
0.314453125,436.38865682296455
0.3154296875,416.96064192801714
0.31640625,396.4824640657753
0.3173828125,372.85379730165005
0.318359375,351.32545647211373
0.3193359375,329.2720341589302
0.3203125,313.51958964951336
0.3212890625,302.4928784929216
0.322265625,305.64336739480495
0.3232421875,308.7938562966883
0.32421875,311.41926371492445
0.3251953125,314.0446711331606
0.326171875,316.1449970677495
0.3271484375,317.7202415186912
0.328125,320.3456489369273
0.3291015625,333.472686028108
0.330078125,351.32545647211373
0.3310546875,369.7033083997667
0.33203125,380.20493807271123
0.3330078125,385.98083439283073
0.333984375,384.9306714255363
0.3349609375,373.3788787852973
0.3359375,363.40233059599996
0.3369140625,358.1515157595277
0.337890625,358.1515157595277
0.3388671875,361.8270861450583
0.33984375,364.4524935632944
0.3408203125,363.9274120796472
0.341796875,352.3756194394082
0.3427734375,331.8974415771663
0.34375,314.5697526168078
0.3447265625,305.1182859111577
0.345703125,307.21861184574664
0.3466796875,316.1449970677495
0.34765625,329.2720341589302
0.3486328125,343.4492342174053
0.349609375,352.3756194394082
0.3505859375,350.8003749884665
0.3515625,342.39907125011086
0.3525390625,335.5730119626969
0.353515625,331.8974415771663
0.3544921875,338.19841938093305
0.35546875,349.75021202117205
0.3564453125,359.72676021046937
0.357421875,367.6029824651778
0.3583984375,367.07790098153055
0.359375,361.30200466141105
0.3603515625,351.85053795576096
0.361328125,343.4492342174053
0.3623046875,344.4993971846998
0.36328125,351.32545647211373
0.3642578125,364.4524935632944
0.365234375,376.0042862035334
0.3662109375,383.8805084582418
0.3671875,384.40558994188905
0.3681640625,377.05444917082787
0.369140625,370.75347136706114
0.3701171875,371.8036343343556
0.37109375,379.679856589064
0.3720703125,390.7065677456558
0.373046875,398.05770851671696
0.3740234375,403.30852335318923
0.375,401.2081974186003
0.3759765625,394.38213813118637
0.376953125,384.40558994188905
0.3779296875,378.62969362176955
0.37890625,385.4557529091835
0.3798828125,397.53262703306973
0.380859375,410.1345826406032
0.3818359375,416.4355604443699
0.3828125,420.63621231354773
0.3837890625,418.0108048953116
0.384765625,409.60950115695596
0.3857421875,404.3586863204837
0.38671875,403.30852335318923
0.3876953125,403.83360483683646
0.388671875,407.50917522236705
0.3896484375,407.50917522236705
0.390625,404.3586863204837
0.3916015625,393.3319751638919
0.392578125,384.9306714255363
0.3935546875,383.3554269745946
0.39453125,380.20493807271123
0.3955078125,380.20493807271123
0.396484375,379.679856589064
0.3974609375,381.7801825236529
0.3984375,381.7801825236529
0.3994140625,378.62969362176955
0.400390625,381.2551010400057
0.4013671875,387.0309973601252
0.40234375,395.4323010984808
0.4033203125,400.15803445130587
0.404296875,408.5593381896615
0.4052734375,415.38539747707546
0.40625,420.1111308299005
0.4072265625,423.7867012154311
0.408203125,429.5625975355506
0.4091796875,435.3384938556701
0.41015625,432.71308643743396
0.4111328125,424.3117826990783
0.412109375,412.7599900588393
0.4130859375,398.5827900003642
0.4140625,390.18148626200855
0.4150390625,385.4557529091835
0.416015625,385.4557529091835
0.4169921875,388.08116032741964
0.41796875,384.9306714255363
0.4189453125,384.40558994188905
0.419921875,377.5795306544751
0.4208984375,369.7033083997667
0.421875,363.40233059599996
0.4228515625,363.40233059599996
0.423828125,372.85379730165005
0.4248046875,383.3554269745946
0.42578125,397.53262703306973
0.4267578125,409.60950115695596
0.427734375,414.86031599342823
0.4287109375,413.8101530261338
0.4296875,409.60950115695596
0.4306640625,408.5593381896615
0.431640625,411.18474560789764
0.4326171875,422.2114567644894
0.43359375,436.9137383066118
0.4345703125,445.84012352861464
0.435546875,450.04077539779246
0.4365234375,443.73979759402573
0.4375,429.03751605190337
0.4384765625,408.5593381896615
0.439453125,389.1313232947141
0.4404296875,382.30526400730014
0.44140625,382.83034549094737
0.4423828125,392.28181219659746
0.443359375,397.0075455494225
0.4443359375,395.4323010984808
0.4453125,390.7065677456558
0.4462890625,382.83034549094737
0.447265625,381.2551010400057
0.4482421875,385.98083439283073
0.44921875,403.30852335318923
0.4501953125,431.6629234701395
0.451171875,455.29159023426473
0.4521484375,473.14436067827046
0.453125,479.9704199656844
0.4541015625,484.69615331850946
0.455078125,486.79647925309837
0.4560546875,490.9971311222762
0.45703125,507.79973859898746
0.4580078125,525.127427559346
0.458984375,537.2043016832322
0.4599609375,536.1541387159377
0.4609375,525.6525090429932
0.4619140625,504.12416821345687
0.462890625,467.8935458417982
0.4638671875,435.8635753393173
0.46484375,409.60950115695596
0.4658203125,392.28181219659746
0.466796875,373.3788787852973
0.4677734375,350.2752935048193
0.46875,322.4459748715162
0.4697265625,291.4661673363298
0.470703125,281.4896191470325
0.4716796875,278.86421172879636
0.47265625,285.1651895325631
0.4736328125,293.5664932709187
0.474609375,306.1684488784522
0.4755859375,315.09483410045505
0.4765625,309.31893778033555
0.4775390625,311.9443451985717
0.478515625,321.920893387869
0.4794921875,336.09809344634414
0.48046875,350.2752935048193
0.4814453125,368.65314543247223
0.482421875,398.5827900003642
0.4833984375,420.63621231354773
0.484375,435.8635753393173
0.4853515625,455.29159023426473
0.486328125,475.24468661285937
0.4873046875,493.0974570568651
0.48828125,503.0740052461624
0.4892578125,517.7762867882848
0.490234375,534.0538127813488
0.4912109375,539.8297091014683
0.4921875,541.40495355241
0.4931640625,541.9300350360572
0.494140625,541.40495355241
0.4951171875,532.4785683304071
0.49609375,522.5020201411098
0.4970703125,517.7762867882848
0.498046875,506.749575631693
0.4990234375,488.8968051876873
0.5,464.7430569399148
0.5009765625,443.2147161103785
0.501953125,414.86031599342823
0.5029296875,383.3554269745946
0.50390625,358.6765972431749
0.5048828125,343.97431570105255
0.505859375,337.6733378972858
0.5068359375,331.8974415771663
0.5078125,330.32219712622464
0.5087890625,330.32219712622464
0.509765625,325.5964637733996
0.5107421875,319.8205674532801
0.51171875,315.09483410045505
0.5126953125,317.7202415186912
0.513671875,325.07138228975236
0.5146484375,331.8974415771663
0.515625,338.19841938093305
0.5166015625,345.5495601519942
0.517578125,350.2752935048193
0.5185546875,351.32545647211373
0.51953125,347.64988608658314
0.5205078125,351.32545647211373
0.521484375,363.40233059599996
0.5224609375,380.20493807271123
0.5234375,395.95738258212805
0.5244140625,408.5593381896615
0.525390625,414.86031599342823
0.5263671875,410.1345826406032
0.52734375,403.83360483683646
0.5283203125,398.5827900003642
0.529296875,398.05770851671696
0.5302734375,401.73327890224755
0.53125,409.08441967330873
0.5322265625,419.06096786260605
0.533203125,420.63621231354773
0.5341796875,422.2114567644894
0.53515625,424.83686418272555
0.5361328125,429.03751605190337
0.537109375,432.18800495378673
0.5380859375,439.0140642412007
0.5390625,446.8902864959091
0.5400390625,450.5658568814397
0.541015625,444.26487907767296
0.5419921875,434.81341237202287
0.54296875,426.41210863366723
0.5439453125,419.5860493462533
0.544921875,416.4355604443699
0.5458984375,416.4355604443699
0.546875,420.63621231354773
0.5478515625,420.63621231354773
0.548828125,421.16129379719496
0.5498046875,415.9104789607227
0.55078125,409.08441967330873
0.5517578125,402.783441869542
0.552734375,399.63295296765864
0.5537109375,401.73327890224755
0.5546875,406.9840937387198
0.5556640625,415.9104789607227
0.556640625,419.5860493462533
0.5576171875,412.2349085751921
0.55859375,397.53262703306973
0.5595703125,380.20493807271123
0.560546875,364.97757504694164
0.5615234375,350.8003749884665
0.5625,345.5495601519942
0.5634765625,349.75021202117205
0.564453125,347.64988608658314
0.5654296875,340.8238267991692
0.56640625,331.8974415771663
0.5673828125,322.97105635516346
0.568359375,313.51958964951336
0.5693359375,307.74369332939386
0.5703125,317.7202415186912
0.5712890625,330.84727860987186
0.572265625,342.9241527337581
0.5732421875,350.2752935048193
0.57421875,354.4759453739971
0.5751953125,353.42578240670264
0.576171875,343.97431570105255
0.5771484375,343.4492342174053
0.578125,350.8003749884665
0.5791015625,364.4524935632944
0.580078125,377.5795306544751
0.5810546875,391.75673071295023
0.58203125,403.30852335318923
0.5830078125,400.15803445130587
0.583984375,394.38213813118637
0.5849609375,393.85705664753914
0.5859375,397.53262703306973
0.5869140625,400.15803445130587
0.587890625,406.4590122550726
0.5888671875,415.9104789607227
0.58984375,423.7867012154311
0.5908203125,426.41210863366723
0.591796875,425.3619456663728
0.5927734375,420.63621231354773
0.59375,413.8101530261338
0.5947265625,410.6596641242504
0.595703125,410.6596641242504
0.5966796875,416.4355604443699
0.59765625,419.5860493462533
0.5986328125,419.5860493462533
0.599609375,418.5358863789588
0.6005859375,412.7599900588393
0.6015625,405.93393077142537
0.6025390625,400.15803445130587
0.603515625,402.783441869542
0.6044921875,409.08441967330873
0.60546875,414.86031599342823
0.6064453125,418.5358863789588
0.607421875,418.5358863789588
0.6083984375,420.63621231354773
0.609375,418.0108048953116
0.6103515625,413.28507154248655
0.611328125,413.28507154248655
0.6123046875,416.4355604443699
0.61328125,421.6863752808422
0.6142578125,427.4622716009617
0.615234375,434.81341237202287
0.6162109375,442.16455314308405
0.6171875,444.7899605613202
0.6181640625,450.04077539779246
0.619140625,456.3417532015592
0.6201171875,460.542405070737
0.62109375,460.542405070737
0.6220703125,456.3417532015592
0.623046875,452.6661828160286
0.6240234375,442.16455314308405
0.625,429.5625975355506
0.6259765625,422.73653824813664
0.626953125,419.5860493462533
0.6279296875,420.63621231354773
0.62890625,418.0108048953116
0.6298828125,419.5860493462533
0.630859375,419.5860493462533
0.6318359375,416.4355604443699
0.6328125,409.08441967330873
0.6337890625,402.783441869542
0.634765625,394.9072196148336
0.6357421875,380.73001955635846
0.63671875,369.17822691611946
0.6376953125,359.20167872682214
0.638671875,352.3756194394082
0.6396484375,343.4492342174053
0.640625,333.9977675117552
