Time (s),Distance
0.0,575.0101685058326
0.0009765625,586.5619611460716
0.001953125,594.9632648844272
0.0029296875,600.2140797208995
0.00390625,608.6153834592551
0.0048828125,618.0668501649052
0.005859375,625.9430724196136
0.0068359375,627.5183168705553
0.0078125,622.267502034083
0.0087890625,612.8160353284329
0.009765625,599.6889982372522
0.0107421875,586.5619611460716
0.01171875,572.9098425712436
0.0126953125,561.3580499310046
0.013671875,548.231012839824
0.0146484375,534.0538127813488
0.015625,520.9267756901681
0.0166015625,510.9502275008708
0.017578125,505.69941266439855
0.0185546875,505.1743311807513
0.01953125,509.90006453357637
0.0205078125,520.9267756901681
0.021484375,527.7528349775821
0.0224609375,529.853160912171
0.0234375,532.4785683304071
0.0244140625,537.2043016832322
0.025390625,541.9300350360572
0.0263671875,549.2811758071184
0.02734375,560.8329684473574
0.0283203125,569.234272185713
0.029296875,573.4349240548909
0.0302734375,579.2108203750104
0.03125,587.612124113366
0.0322265625,594.43818340078
0.033203125,602.3144056554884
0.0341796875,614.3912797793746
0.03515625,622.267502034083
0.0361328125,620.1671760994941
0.037109375,615.9665242303163
0.0380859375,611.2407908774912
0.0390625,603.88965010643
0.0400390625,596.5385093353689
0.041015625,593.3880204334855
0.0419921875,589.1873685643077
0.04296875,581.3111463095993
0.0439453125,574.4850870221853
0.044921875,565.5587018001825
0.0458984375,552.4316647090018
0.046875,540.8798720687628
0.0478515625,532.4785683304071
0.048828125,521.9769386574626
0.0498046875,512.5254719518125
0.05078125,508.8499015662819
0.0517578125,504.12416821345687
0.052734375,494.6727015078068
0.0537109375,490.47204963862896
0.0546875,493.6225385405123
0.0556640625,501.49876079522073
0.056640625,509.90006453357637
0.0576171875,523.5521831084043
0.05859375,531.9534868467599
0.0595703125,533.0036498140544
0.060546875,530.9033238794655
0.0615234375,534.578894264996
0.0625,542.9801980033517
0.0634765625,551.9065832253546
0.064453125,565.5587018001825
0.0654296875,576.5854129567742
0.06640625,581.3111463095993
0.0673828125,580.2609833423048
0.068359375,580.2609833423048
0.0693359375,580.2609833423048
0.0703125,580.786064825952
0.0712890625,581.3111463095993
0.072265625,579.2108203750104
0.0732421875,572.9098425712436
0.07421875,564.508538832888
0.0751953125,553.4818276762962
0.076171875,544.5554424542934
0.0771484375,541.9300350360572
0.078125,540.8798720687628
0.0791015625,539.8297091014683
0.080078125,536.679220199585
0.0810546875,531.9534868467599
0.08203125,526.1775905266404
0.0830078125,524.6023460756987
0.083984375,527.2277534939349
0.0849609375,530.3782423958182
0.0859375,535.1039757486433
0.0869140625,537.2043016832322
0.087890625,538.7795461341739
0.0888671875,540.8798720687628
0.08984375,542.4551165197045
0.0908203125,547.7059313561767
0.091796875,555.5821536108851
0.0927734375,563.4583758655936
0.09375,569.234272185713
0.0947265625,577.6355759240687
0.095703125,584.9867166951299
0.0966796875,591.8127759825438
0.09765625,599.163916753605
0.0986328125,607.0401390083134
0.099609375,615.441442746669
0.1005859375,619.6420946158469
0.1015625,620.6922575831413
0.1025390625,619.6420946158469
0.103515625,615.441442746669
0.1044921875,608.6153834592551
0.10546875,603.88965010643
0.1064453125,602.3144056554884
0.107421875,598.6388352699578
0.1083984375,589.1873685643077
0.109375,580.786064825952
0.1103515625,570.2844351530075
0.111328125,558.2075610291213
0.1123046875,545.0805239379406
0.11328125,540.8798720687628
0.1142578125,535.1039757486433
0.115234375,529.3280794285238
0.1162109375,526.1775905266404
0.1171875,524.0772645920515
0.1181640625,521.9769386574626
0.119140625,523.5521831084043
0.1201171875,529.3280794285238
0.12109375,533.0036498140544
0.1220703125,533.0036498140544
0.123046875,529.853160912171
0.1240234375,526.1775905266404
0.125,519.3515312392265
0.1259765625,520.9267756901681
0.126953125,527.7528349775821
0.1279296875,533.5287312977016
0.12890625,537.7293831668794
0.1298828125,545.6056054215878
0.130859375,549.8062572907656
0.1318359375,546.6557683888823
0.1328125,550.3313387744129
0.1337890625,556.6323165781796
0.134765625,556.6323165781796
0.1357421875,550.8564202580601
0.13671875,545.0805239379406
0.1376953125,537.2043016832322
0.138671875,523.027101624757
0.1396484375,512.5254719518125
0.140625,508.8499015662819
0.1416015625,502.5489237625152
0.142578125,488.37172370404005
0.1435546875,473.6694421619177
0.14453125,461.06748655438423
0.1455078125,445.3150420449674
0.146484375,434.81341237202287
0.1474609375,436.38865682296455
0.1484375,444.7899605613202
0.1494140625,449.51569391414523
0.150390625,453.1912642996758
0.1513671875,460.0173235870898
0.15234375,468.94370880909264
0.1533203125,484.17107183486223
0.154296875,509.90006453357637
0.1552734375,541.9300350360572
0.15625,568.7091907020658
0.1572265625,589.1873685643077
0.158203125,601.7893241718411
0.1591796875,607.5652204919606
0.16015625,612.8160353284329
0.1611328125,624.3678279686719
0.162109375,636.4447020925581
0.1630859375,643.7958428636193
0.1640625,647.4714132491499
0.1650390625,642.2205984126776
0.166015625,626.4681539032608
0.1669921875,608.6153834592551
0.16796875,594.9632648844272
0.1689453125,580.2609833423048
0.169921875,565.5587018001825
0.1708984375,550.8564202580601
0.171875,531.9534868467599
0.1728515625,506.749575631693
0.173828125,484.69615331850946
0.1748046875,467.8935458417982
0.17578125,455.81667171791196
0.1767578125,451.61601984873414
0.177734375,454.7665087506175
0.1787109375,461.59256803803146
0.1796875,461.59256803803146
0.1806640625,462.6427310053259
0.181640625,471.04403474368155
0.1826171875,482.59582738392055
0.18359375,495.72286447510123
0.1845703125,510.4251460172236
0.185546875,526.7026720102876
0.1865234375,534.578894264996
0.1875,535.6290572322905
0.1884765625,534.578894264996
0.189453125,537.2043016832322
0.1904296875,542.4551165197045
0.19140625,551.3815017417073
0.1923828125,559.2577239964157
0.193359375,564.508538832888
0.1943359375,561.8831314146519
0.1953125,550.8564202580601
0.1962890625,537.7293831668794
0.197265625,528.2779164612293
0.1982421875,527.2277534939349
0.19921875,524.6023460756987
0.2001953125,524.6023460756987
0.201171875,524.6023460756987
0.2021484375,523.027101624757
0.203125,516.2010423373431
0.2041015625,514.6257978864014
0.205078125,523.027101624757
0.2060546875,535.1039757486433
0.20703125,546.6557683888823
0.2080078125,558.7326425127685
0.208984375,564.508538832888
0.2099609375,562.4082128982991
0.2109375,559.2577239964157
0.2119140625,559.782805480063
0.212890625,563.4583758655936
0.2138671875,568.7091907020658
0.21484375,577.1104944404215
0.2158203125,580.786064825952
0.216796875,578.6857388913631
0.2177734375,570.8095166366547
0.21875,563.9834573492408
0.2197265625,557.682479545474
0.220703125,553.4818276762962
0.2216796875,551.9065832253546
0.22265625,546.130686905235
0.2236328125,535.6290572322905
0.224609375,521.4518571738154
0.2255859375,507.27465711534023
0.2265625,497.2981089260429
0.2275390625,494.14762002415955
0.228515625,496.7730274423957
0.2294921875,501.49876079522073
0.23046875,502.5489237625152
0.2314453125,504.6492496971041
0.232421875,503.59908672980964
0.2333984375,505.1743311807513
0.234375,509.37498304992914
0.2353515625,520.9267756901681
0.236328125,531.4284053631127
0.2373046875,541.40495355241
0.23828125,550.3313387744129
0.2392578125,557.682479545474
0.240234375,565.5587018001825
0.2412109375,575.5352499894798
0.2421875,590.2375315316021
0.2431640625,604.9398130737245
0.244140625,617.541768681258
0.2451171875,623.8427464850247
0.24609375,620.6922575831413
0.2470703125,610.1906279101968
0.248046875,598.6388352699578
0.2490234375,591.8127759825438
0.25,588.6622870806605
0.2509765625,585.5117981787771
0.251953125,581.8362277932465
0.2529296875,572.9098425712436
0.25390625,558.2075610291213
0.2548828125,540.8798720687628
0.255859375,528.2779164612293
0.2568359375,521.9769386574626
0.2578125,518.301368271932
0.2587890625,512.5254719518125
0.259765625,503.59908672980964
0.2607421875,495.72286447510123
0.26171875,483.645990351215
0.2626953125,475.7697680965066
0.263671875,473.6694421619177
0.2646484375,478.39517551474273
0.265625,486.79647925309837
0.2666015625,495.72286447510123
0.267578125,503.0740052461624
0.2685546875,507.79973859898746
0.26953125,514.6257978864014
0.2705078125,521.4518571738154
0.271484375,527.2277534939349
0.2724609375,533.0036498140544
0.2734375,538.7795461341739
0.2744140625,542.4551165197045
0.275390625,546.130686905235
0.2763671875,552.4316647090018
0.27734375,561.3580499310046
0.2783203125,565.0336203165352
0.279296875,570.8095166366547
0.2802734375,577.6355759240687
0.28125,582.886390760541
0.2822265625,581.8362277932465
0.283203125,579.7359018586576
0.2841796875,578.6857388913631
0.28515625,575.5352499894798
0.2861328125,572.9098425712436
0.287109375,573.4349240548909
0.2880859375,574.4850870221853
0.2890625,571.8596796039492
0.2900390625,566.6088647674769
0.291015625,557.682479545474
0.2919921875,546.6557683888823
0.29296875,534.578894264996
0.2939453125,523.027101624757
0.294921875,508.8499015662819
0.2958984375,492.57237557321787
0.296875,477.3450125474483
0.2978515625,462.6427310053259
0.298828125,452.14110133238137
0.2998046875,446.8902864959091
0.30078125,452.6661828160286
0.3017578125,465.26813842356205
0.302734375,480.49550144933164
0.3037109375,494.6727015078068
0.3046875,509.90006453357637
0.3056640625,520.9267756901681
0.306640625,529.853160912171
0.3076171875,540.8798720687628
0.30859375,554.0069091599435
0.3095703125,565.0336203165352
0.310546875,570.8095166366547
0.3115234375,567.1339462511241
0.3125,558.2075610291213
0.3134765625,545.6056054215878
0.314453125,535.6290572322905
0.3154296875,526.1775905266404
0.31640625,520.4016942065209
0.3173828125,512.5254719518125
0.318359375,502.5489237625152
0.3193359375,488.37172370404005
0.3203125,474.1945236455649
0.3212890625,464.7430569399148
0.322265625,461.59256803803146
0.3232421875,465.7932199072093
0.32421875,470.5189532600343
0.3251953125,478.39517551474273
0.326171875,490.9971311222762
0.3271484375,504.12416821345687
0.328125,522.5020201411098
0.3291015625,549.8062572907656
0.330078125,582.3613092768937
0.3310546875,609.6655464265496
0.33203125,633.819294674322
0.3330078125,654.8225540202111
0.333984375,664.7991022095084
0.3349609375,668.9997540786862
0.3359375,671.6251614969224
0.3369140625,676.3508948497474
0.337890625,678.9763022679836
0.3388671875,677.4010578170419
0.33984375,671.1000800132751
0.3408203125,657.4479614384472
0.341796875,637.4948650598526
0.3427734375,611.7658723611385
0.34375,591.8127759825438
0.3447265625,572.9098425712436
0.345703125,556.6323165781796
0.3466796875,540.8798720687628
0.34765625,525.6525090429932
0.3486328125,506.749575631693
0.349609375,486.79647925309837
0.3505859375,473.6694421619177
0.3515625,467.36846435815096
0.3525390625,464.2179754562676
0.353515625,466.3183013908565
0.3544921875,473.14436067827046
0.35546875,478.39517551474273
0.3564453125,481.5456644166261
0.357421875,485.2212348021567
0.3583984375,492.04729408957064
0.359375,499.92351634427905
0.3603515625,508.8499015662819
0.361328125,520.9267756901681
0.3623046875,534.0538127813488
0.36328125,542.4551165197045
0.3642578125,553.4818276762962
0.365234375,565.0336203165352
0.3662109375,577.1104944404215
0.3671875,586.5619611460716
0.3681640625,596.5385093353689
0.369140625,608.0903019756079
0.3701171875,613.3411168120801
0.37109375,617.541768681258
0.3720703125,615.9665242303163
0.373046875,610.715709393844
0.3740234375,604.9398130737245
0.375,600.7391612045467
0.3759765625,598.1137537863106
0.376953125,589.7124500479549
0.3779296875,579.2108203750104
0.37890625,566.6088647674769
0.3798828125,550.8564202580601
0.380859375,532.4785683304071
0.3818359375,515.1508793700486
0.3828125,500.4485978279263
0.3837890625,483.1209088675678
0.384765625,469.9938717763871
0.3857421875,458.4420791361481
0.38671875,450.04077539779246
0.3876953125,445.84012352861464
0.388671875,446.8902864959091
0.3896484375,457.39191616885364
0.390625,469.9938717763871
0.3916015625,488.8968051876873
0.392578125,505.69941266439855
0.3935546875,520.9267756901681
0.39453125,537.7293831668794
0.3955078125,556.1072350945324
0.396484375,575.5352499894798
0.3974609375,590.7626130152494
0.3984375,603.3645686227828
0.3994140625,609.6655464265496
0.400390625,608.0903019756079
0.4013671875,604.9398130737245
0.40234375,600.2140797208995
0.4033203125,597.5886723026633
0.404296875,589.7124500479549
0.4052734375,578.6857388913631
0.40625,562.4082128982991
0.4072265625,541.40495355241
0.408203125,521.4518571738154
0.4091796875,505.69941266439855
0.41015625,496.7730274423957
0.4111328125,490.47204963862896
0.412109375,480.49550144933164
0.4130859375,470.5189532600343
0.4140625,465.26813842356205
0.4150390625,463.16781248897314
0.416015625,465.7932199072093
0.4169921875,477.3450125474483
0.41796875,495.197782991454
0.4189453125,507.79973859898746
0.419921875,515.6759608536959
0.4208984375,523.5521831084043
0.421875,536.679220199585
0.4228515625,549.2811758071184
0.423828125,563.4583758655936
0.4248046875,579.2108203750104
0.42578125,591.2876944988966
0.4267578125,594.9632648844272
0.427734375,592.337857466191
0.4287109375,589.7124500479549
0.4296875,583.9365537278354
0.4306640625,579.2108203750104
0.431640625,573.4349240548909
0.4326171875,568.7091907020658
0.43359375,563.9834573492408
0.4345703125,553.4818276762962
0.435546875,542.9801980033517
0.4365234375,537.2043016832322
0.4375,531.9534868467599
0.4384765625,524.0772645920515
0.439453125,519.3515312392265
0.4404296875,518.301368271932
0.44140625,514.6257978864014
0.4423828125,510.4251460172236
0.443359375,512.5254719518125
0.4443359375,518.301368271932
0.4453125,522.5020201411098
0.4462890625,527.7528349775821
0.447265625,533.5287312977016
0.4482421875,533.5287312977016
0.44921875,532.4785683304071
0.4501953125,530.9033238794655
0.451171875,531.4284053631127
0.4521484375,533.5287312977016
0.453125,539.3046276178211
0.4541015625,548.231012839824
0.455078125,554.0069091599435
0.4560546875,559.2577239964157
0.45703125,559.2577239964157
0.4580078125,557.1573980618268
0.458984375,559.782805480063
0.4599609375,567.6590277347714
0.4609375,576.060331473127
0.4619140625,579.7359018586576
0.462890625,582.3613092768937
0.4638671875,581.8362277932465
0.46484375,576.5854129567742
0.4658203125,577.1104944404215
0.466796875,585.5117981787771
0.4677734375,591.8127759825438
0.46875,589.1873685643077
0.4697265625,580.786064825952
0.470703125,569.7593536693603
0.4716796875,551.3815017417073
0.47265625,535.1039757486433
0.4736328125,526.7026720102876
0.474609375,524.6023460756987
0.4755859375,519.8766127228737
0.4765625,512.5254719518125
0.4775390625,505.1743311807513
0.478515625,496.7730274423957
0.4794921875,488.37172370404005
0.48046875,489.94696815498173
0.4814453125,499.3984348606318
0.482421875,508.3248200826347
0.4833984375,511.47530898451805
0.484375,513.0505534354597
0.4853515625,511.47530898451805
0.486328125,508.3248200826347
0.4873046875,512.5254719518125
0.48828125,524.6023460756987
0.4892578125,538.2544646505266
0.490234375,548.231012839824
0.4912109375,557.1573980618268
0.4921875,558.2075610291213
0.4931640625,556.1072350945324
0.494140625,558.7326425127685
0.4951171875,561.8831314146519
0.49609375,559.782805480063
0.4970703125,552.956746192649
0.498046875,545.0805239379406
0.4990234375,530.9033238794655
0.5,512.5254719518125
0.5009765625,499.92351634427905
0.501953125,493.6225385405123
0.5029296875,488.37172370404005
0.50390625,489.94696815498173
0.5048828125,497.2981089260429
0.505859375,499.92351634427905
0.5068359375,497.2981089260429
0.5078125,502.5489237625152
0.5087890625,515.1508793700486
0.509765625,526.7026720102876
0.5107421875,541.9300350360572
0.51171875,562.9332943819463
0.5126953125,580.786064825952
0.513671875,591.2876944988966
0.5146484375,600.7391612045467
0.515625,608.6153834592551
0.5166015625,614.9163612630218
0.517578125,620.1671760994941
0.5185546875,624.8929094523191
0.51953125,624.8929094523191
0.5205078125,613.3411168120801
0.521484375,594.9632648844272
0.5224609375,573.4349240548909
0.5234375,550.3313387744129
0.5244140625,529.853160912171
0.525390625,515.1508793700486
0.5263671875,498.8733533769846
0.52734375,481.02058293297887
0.5283203125,459.49224210344255
0.529296875,440.58930869214237
0.5302734375,426.41210863366723
0.53125,419.5860493462533
0.5322265625,420.63621231354773
0.533203125,430.0876790191978
0.5341796875,443.73979759402573
0.53515625,460.0173235870898
0.5361328125,478.39517551474273
0.537109375,500.4485978279263
0.5380859375,525.6525090429932
0.5390625,550.8564202580601
0.5400390625,576.060331473127
0.541015625,597.5886723026633
0.5419921875,616.4916057139635
0.54296875,633.2942131906748
0.5439453125,647.9964947327971
0.544921875,659.5482873730361
0.5458984375,667.9495911113918
0.546875,673.7254874315113
0.5478515625,675.8258133661002
0.548828125,668.474672595039
0.5498046875,655.8727169875056
0.55078125,634.3443761579692
0.5517578125,605.989976041019
0.552734375,575.0101685058326
0.5537109375,545.6056054215878
0.5546875,519.3515312392265
0.5556640625,490.47204963862896
0.556640625,466.3183013908565
0.5576171875,444.26487907767296
0.55859375,422.2114567644894
0.5595703125,405.93393077142537
0.560546875,398.5827900003642
0.5615234375,397.53262703306973
0.5625,401.2081974186003
0.5634765625,407.50917522236705
0.564453125,417.48572341166437
0.5654296875,432.18800495378673
0.56640625,454.7665087506175
0.5673828125,484.69615331850946
0.568359375,516.2010423373431
0.5693359375,550.3313387744129
0.5703125,581.3111463095993
0.5712890625,607.0401390083134
0.572265625,625.9430724196136
0.5732421875,641.1704354453832
0.57421875,653.7723910529166
0.5751953125,664.2740207258612
0.576171875,672.6753244642168
0.5771484375,674.7756503988057
0.578125,668.9997540786862
0.5791015625,653.2473095692694
0.580078125,630.1437242887914
0.5810546875,602.3144056554884
0.58203125,572.9098425712436
0.5830078125,548.7560943234712
0.583984375,525.127427559346
0.5849609375,499.3984348606318
0.5859375,476.2948495801538
0.5869140625,457.39191616885364
0.587890625,442.16455314308405
0.5888671875,437.438819790259
0.58984375,448.4655309468508
0.5908203125,466.84338287450373
0.591796875,485.2212348021567
0.5927734375,504.6492496971041
0.59375,523.027101624757
0.5947265625,539.3046276178211
0.595703125,557.1573980618268
0.5966796875,583.9365537278354
0.59765625,617.0166871976107
0.5986328125,642.7456798963249
0.599609375,658.4981244057417
0.6005859375,662.1736947912723
0.6015625,658.4981244057417
0.6025390625,651.6720651183277
0.603515625,647.9964947327971
0.6044921875,649.5717391837388
0.60546875,646.4212502818555
0.6064453125,629.6186428051442
0.607421875,599.6889982372522
0.6083984375,560.8329684473574
0.609375,524.6023460756987
0.6103515625,494.6727015078068
0.611328125,478.39517551474273
0.6123046875,465.26813842356205
0.61328125,451.0909383650869
0.6142578125,436.38865682296455
0.615234375,414.335234509781
0.6162109375,397.0075455494225
0.6171875,394.9072196148336
0.6181640625,412.7599900588393
0.619140625,442.6896346267313
0.6201171875,474.71960512921214
0.62109375,504.6492496971041
0.6220703125,524.6023460756987
0.623046875,538.2544646505266
0.6240234375,554.5319906435907
0.625,582.3613092768937
0.6259765625,615.9665242303163
0.626953125,644.8460058309138
0.6279296875,667.4245096277446
0.62890625,676.8759763333946
0.6298828125,667.9495911113918
0.630859375,651.6720651183277
0.6318359375,645.371087314561
0.6328125,641.1704354453832
0.6337890625,632.7691317070276
0.634765625,622.7925835177302
0.6357421875,601.2642426881939
0.63671875,562.4082128982991
0.6376953125,520.4016942065209
0.638671875,492.57237557321787
0.6396484375,475.24468661285937
0.640625,466.3183013908565
0.6416015625,468.94370880909264
0.642578125,471.5691162273288
0.6435546875,464.7430569399148
0.64453125,457.91699765250087
0.6455078125,461.59256803803146
0.646484375,472.61927919462323
0.6474609375,492.57237557321787
0.6484375,521.4518571738154
