Time (s),Distance
0.0,500.4485978279263
0.0009765625,512.5254719518125
0.001953125,520.9267756901681
0.0029296875,528.2779164612293
0.00390625,532.4785683304071
0.0048828125,534.578894264996
0.005859375,535.6290572322905
0.0068359375,539.3046276178211
0.0078125,542.9801980033517
0.0087890625,542.9801980033517
0.009765625,542.4551165197045
0.0107421875,539.3046276178211
0.01171875,534.0538127813488
0.0126953125,528.8029979448766
0.013671875,524.0772645920515
0.0146484375,519.8766127228737
0.015625,515.6759608536959
0.0166015625,511.47530898451805
0.017578125,506.2244941480458
0.0185546875,498.8733533769846
0.01953125,492.57237557321787
0.0205078125,486.79647925309837
0.021484375,483.1209088675678
0.0224609375,482.59582738392055
0.0234375,483.645990351215
0.0244140625,485.2212348021567
0.025390625,486.79647925309837
0.0263671875,490.9971311222762
0.02734375,494.6727015078068
0.0283203125,498.8733533769846
0.029296875,501.49876079522073
0.0302734375,506.2244941480458
0.03125,508.8499015662819
0.0322265625,508.3248200826347
0.033203125,505.1743311807513
0.0341796875,503.0740052461624
0.03515625,502.5489237625152
0.0361328125,503.59908672980964
0.037109375,506.2244941480458
0.0380859375,506.749575631693
0.0390625,504.12416821345687
0.0400390625,498.8733533769846
0.041015625,493.0974570568651
0.0419921875,487.3215607367456
0.04296875,483.1209088675678
0.0439453125,479.9704199656844
0.044921875,476.2948495801538
0.0458984375,472.094197710976
0.046875,466.3183013908565
0.0478515625,462.6427310053259
0.048828125,461.06748655438423
0.0498046875,461.59256803803146
0.05078125,465.26813842356205
0.0517578125,472.094197710976
0.052734375,479.4453384820372
0.0537109375,486.27139776945114
0.0546875,493.0974570568651
0.0556640625,499.92351634427905
0.056640625,506.2244941480458
0.0576171875,511.47530898451805
0.05859375,517.7762867882848
0.0595703125,523.5521831084043
0.060546875,528.2779164612293
0.0615234375,531.9534868467599
0.0625,534.0538127813488
0.0634765625,533.5287312977016
0.064453125,534.578894264996
0.0654296875,537.2043016832322
0.06640625,540.8798720687628
0.0673828125,543.5052794869989
0.068359375,542.4551165197045
0.0693359375,539.3046276178211
0.0703125,531.4284053631127
0.0712890625,521.9769386574626
0.072265625,514.1007164027542
0.0732421875,506.749575631693
0.07421875,502.5489237625152
0.0751953125,500.9736793115735
0.076171875,499.92351634427905
0.0771484375,496.7730274423957
0.078125,493.0974570568651
0.0791015625,492.04729408957064
0.080078125,494.6727015078068
0.0810546875,498.34827189333737
0.08203125,505.1743311807513
0.0830078125,510.9502275008708
0.083984375,514.6257978864014
0.0849609375,514.6257978864014
0.0859375,510.9502275008708
0.0869140625,507.79973859898746
0.087890625,506.749575631693
0.0888671875,509.90006453357637
0.08984375,514.6257978864014
0.0908203125,518.301368271932
0.091796875,520.9267756901681
0.0927734375,519.8766127228737
0.09375,516.7261238209903
0.0947265625,513.575634919107
0.095703125,513.575634919107
0.0966796875,510.9502275008708
0.09765625,505.1743311807513
0.0986328125,499.92351634427905
0.099609375,493.6225385405123
0.1005859375,488.37172370404005
0.1015625,483.645990351215
0.1025390625,483.1209088675678
0.103515625,485.2212348021567
0.1044921875,484.17107183486223
0.10546875,481.5456644166261
0.1064453125,478.92025699838996
0.107421875,475.24468661285937
0.1083984375,469.9938717763871
0.109375,466.84338287450373
0.1103515625,468.4186273254454
0.111328125,468.4186273254454
0.1123046875,467.36846435815096
0.11328125,471.04403474368155
0.1142578125,476.2948495801538
0.115234375,483.645990351215
0.1162109375,490.9971311222762
0.1171875,502.02384227886796
0.1181640625,511.47530898451805
0.119140625,517.2512053046376
0.1201171875,520.4016942065209
0.12109375,520.9267756901681
0.1220703125,521.4518571738154
0.123046875,520.9267756901681
0.1240234375,525.127427559346
0.125,531.9534868467599
0.1259765625,538.2544646505266
0.126953125,544.0303609706461
0.1279296875,546.6557683888823
0.12890625,547.1808498725295
0.1298828125,547.7059313561767
0.130859375,548.7560943234712
0.1318359375,548.7560943234712
0.1328125,546.6557683888823
0.1337890625,541.9300350360572
0.134765625,531.4284053631127
0.1357421875,516.2010423373431
0.13671875,503.59908672980964
0.1376953125,492.57237557321787
0.138671875,483.645990351215
0.1396484375,477.8700940310955
0.140625,475.7697680965066
0.1416015625,474.71960512921214
0.142578125,471.5691162273288
0.1435546875,471.04403474368155
0.14453125,473.14436067827046
0.1455078125,476.81993106380105
0.146484375,483.1209088675678
0.1474609375,492.57237557321787
0.1484375,502.02384227886796
0.1494140625,508.3248200826347
0.150390625,512.0003904681653
0.1513671875,517.2512053046376
0.15234375,521.9769386574626
0.1533203125,526.7026720102876
0.154296875,531.9534868467599
0.1552734375,536.1541387159377
0.15625,538.2544646505266
0.1572265625,537.7293831668794
0.158203125,536.1541387159377
0.1591796875,532.4785683304071
0.16015625,526.7026720102876
0.1611328125,518.8264497555792
0.162109375,509.37498304992914
0.1630859375,498.8733533769846
0.1640625,486.27139776945114
0.1650390625,475.24468661285937
0.166015625,466.84338287450373
0.1669921875,462.1176495216787
0.16796875,461.06748655438423
0.1689453125,460.542405070737
0.169921875,464.2179754562676
0.1708984375,467.8935458417982
0.171875,472.094197710976
0.1728515625,479.4453384820372
0.173828125,488.37172370404005
0.1748046875,496.7730274423957
0.17578125,504.12416821345687
0.1767578125,514.6257978864014
0.177734375,525.127427559346
0.1787109375,535.6290572322905
0.1796875,547.1808498725295
0.1806640625,561.3580499310046
0.181640625,570.8095166366547
0.1826171875,576.5854129567742
0.18359375,580.2609833423048
0.1845703125,581.8362277932465
0.185546875,579.7359018586576
0.1865234375,575.5352499894798
0.1875,570.2844351530075
0.1884765625,558.7326425127685
0.189453125,541.9300350360572
0.1904296875,524.0772645920515
0.19140625,505.69941266439855
0.1923828125,488.37172370404005
0.193359375,476.2948495801538
0.1943359375,468.94370880909264
0.1953125,463.16781248897314
0.1962890625,457.91699765250087
0.197265625,454.7665087506175
0.1982421875,451.0909383650869
0.19921875,448.990612430498
0.2001953125,448.990612430498
0.201171875,452.14110133238137
0.2021484375,454.7665087506175
0.203125,460.0173235870898
0.2041015625,467.8935458417982
0.205078125,477.8700940310955
0.2060546875,487.3215607367456
0.20703125,497.2981089260429
0.2080078125,508.3248200826347
0.208984375,516.7261238209903
0.2099609375,525.6525090429932
0.2109375,533.5287312977016
0.2119140625,538.7795461341739
0.212890625,539.3046276178211
0.2138671875,538.2544646505266
0.21484375,535.6290572322905
0.2158203125,529.3280794285238
0.216796875,523.027101624757
0.2177734375,517.2512053046376
0.21875,511.47530898451805
0.2197265625,508.3248200826347
0.220703125,509.37498304992914
0.2216796875,510.4251460172236
0.22265625,512.0003904681653
0.2236328125,514.1007164027542
0.224609375,517.7762867882848
0.2255859375,520.4016942065209
0.2265625,521.9769386574626
0.2275390625,525.127427559346
0.228515625,526.1775905266404
0.2294921875,526.1775905266404
0.23046875,524.6023460756987
0.2314453125,522.5020201411098
0.232421875,521.9769386574626
0.2333984375,524.0772645920515
0.234375,527.7528349775821
0.2353515625,531.9534868467599
0.236328125,531.4284053631127
0.2373046875,530.9033238794655
0.23828125,527.7528349775821
0.2392578125,523.5521831084043
0.240234375,520.9267756901681
0.2412109375,519.3515312392265
0.2421875,519.8766127228737
0.2431640625,519.3515312392265
0.244140625,518.8264497555792
0.2451171875,519.3515312392265
0.24609375,519.8766127228737
0.2470703125,520.9267756901681
0.248046875,525.127427559346
0.2490234375,529.853160912171
0.25,531.9534868467599
0.2509765625,533.5287312977016
0.251953125,533.0036498140544
0.2529296875,529.853160912171
0.25390625,524.0772645920515
0.2548828125,518.301368271932
0.255859375,515.6759608536959
0.2568359375,510.9502275008708
0.2578125,508.8499015662819
0.2587890625,506.2244941480458
0.259765625,503.0740052461624
0.2607421875,498.34827189333737
0.26171875,495.197782991454
0.2626953125,494.14762002415955
0.263671875,494.14762002415955
0.2646484375,495.72286447510123
0.265625,496.7730274423957
0.2666015625,497.2981089260429
0.267578125,498.8733533769846
0.2685546875,501.49876079522073
0.26953125,506.2244941480458
0.2705078125,513.0505534354597
0.271484375,519.3515312392265
0.2724609375,525.6525090429932
0.2734375,531.9534868467599
0.2744140625,538.2544646505266
0.275390625,543.5052794869989
0.2763671875,549.2811758071184
0.27734375,552.4316647090018
0.2783203125,551.3815017417073
0.279296875,544.5554424542934
0.2802734375,535.6290572322905
0.28125,526.7026720102876
0.2822265625,517.7762867882848
0.283203125,511.47530898451805
0.2841796875,505.69941266439855
0.28515625,499.92351634427905
0.2861328125,493.0974570568651
0.287109375,486.27139776945114
0.2880859375,479.9704199656844
0.2890625,475.24468661285937
0.2900390625,474.71960512921214
0.291015625,475.7697680965066
0.2919921875,474.71960512921214
0.29296875,472.61927919462323
0.2939453125,468.94370880909264
0.294921875,465.26813842356205
0.2958984375,462.1176495216787
0.296875,463.69289397262037
0.2978515625,468.94370880909264
0.298828125,476.81993106380105
0.2998046875,484.17107183486223
0.30078125,489.4218866713345
0.3017578125,495.72286447510123
0.302734375,497.82319040969014
0.3037109375,500.4485978279263
0.3046875,503.59908672980964
0.3056640625,507.27465711534023
0.306640625,508.8499015662819
0.3076171875,508.8499015662819
0.30859375,506.749575631693
0.3095703125,499.3984348606318
0.310546875,493.0974570568651
0.3115234375,490.47204963862896
0.3125,487.3215607367456
0.3134765625,485.2212348021567
0.314453125,484.69615331850946
0.3154296875,484.17107183486223
0.31640625,478.39517551474273
0.3173828125,472.094197710976
0.318359375,471.04403474368155
0.3193359375,472.61927919462323
0.3203125,474.71960512921214
0.3212890625,478.92025699838996
0.322265625,483.1209088675678
0.3232421875,485.7463162858039
0.32421875,485.2212348021567
0.3251953125,489.94696815498173
0.326171875,498.8733533769846
0.3271484375,510.9502275008708
0.328125,525.127427559346
0.3291015625,540.8798720687628
0.330078125,550.3313387744129
0.3310546875,554.5319906435907
0.33203125,556.1072350945324
0.3330078125,558.2075610291213
0.333984375,560.3078869637102
0.3349609375,560.3078869637102
0.3359375,559.2577239964157
0.3369140625,554.5319906435907
0.337890625,544.0303609706461
0.3388671875,532.4785683304071
0.33984375,523.027101624757
0.3408203125,516.7261238209903
0.341796875,511.47530898451805
0.3427734375,507.79973859898746
0.34375,503.0740052461624
0.3447265625,493.6225385405123
0.345703125,482.0707459002733
0.3466796875,471.04403474368155
0.34765625,463.69289397262037
0.3486328125,461.06748655438423
0.349609375,461.59256803803146
0.3505859375,464.2179754562676
0.3515625,465.26813842356205
0.3525390625,465.7932199072093
0.353515625,465.26813842356205
0.3544921875,467.36846435815096
0.35546875,475.7697680965066
0.3564453125,487.3215607367456
0.357421875,499.92351634427905
0.3583984375,510.4251460172236
0.359375,517.2512053046376
0.3603515625,520.9267756901681
0.361328125,526.1775905266404
0.3623046875,532.4785683304071
0.36328125,543.5052794869989
0.3642578125,555.0570721272379
0.365234375,563.9834573492408
0.3662109375,565.5587018001825
0.3671875,565.5587018001825
0.3681640625,561.8831314146519
0.369140625,557.1573980618268
0.3701171875,554.5319906435907
0.37109375,554.0069091599435
0.3720703125,552.4316647090018
0.373046875,546.130686905235
0.3740234375,536.679220199585
0.375,524.6023460756987
0.3759765625,510.9502275008708
0.376953125,498.34827189333737
0.3779296875,490.9971311222762
0.37890625,486.27139776945114
0.3798828125,483.1209088675678
0.380859375,478.92025699838996
0.3818359375,474.71960512921214
0.3828125,470.5189532600343
0.3837890625,466.3183013908565
0.384765625,465.7932199072093
0.3857421875,467.8935458417982
0.38671875,471.5691162273288
0.3876953125,476.2948495801538
0.388671875,482.0707459002733
0.3896484375,487.3215607367456
0.390625,489.94696815498173
0.3916015625,493.6225385405123
0.392578125,499.92351634427905
0.3935546875,505.69941266439855
0.39453125,512.0003904681653
0.3955078125,517.2512053046376
0.396484375,522.5020201411098
0.3974609375,525.6525090429932
0.3984375,530.9033238794655
0.3994140625,535.6290572322905
0.400390625,539.8297091014683
0.4013671875,541.40495355241
0.40234375,540.8798720687628
0.4033203125,537.2043016832322
0.404296875,532.4785683304071
0.4052734375,528.2779164612293
0.40625,523.5521831084043
0.4072265625,519.8766127228737
0.408203125,515.1508793700486
0.4091796875,509.37498304992914
0.41015625,501.49876079522073
0.4111328125,495.72286447510123
0.412109375,489.94696815498173
0.4130859375,484.69615331850946
0.4140625,479.4453384820372
0.4150390625,474.71960512921214
0.416015625,468.94370880909264
0.4169921875,463.16781248897314
0.41796875,456.8668346852064
0.4189453125,453.1912642996758
0.419921875,454.7665087506175
0.4208984375,456.8668346852064
0.421875,461.06748655438423
0.4228515625,466.84338287450373
0.423828125,475.7697680965066
0.4248046875,483.1209088675678
0.42578125,490.47204963862896
0.4267578125,500.4485978279263
0.427734375,512.0003904681653
0.4287109375,524.0772645920515
0.4296875,533.5287312977016
0.4306640625,542.4551165197045
0.431640625,547.7059313561767
0.4326171875,549.8062572907656
0.43359375,550.3313387744129
0.4345703125,551.9065832253546
0.435546875,550.8564202580601
0.4365234375,552.4316647090018
0.4375,551.3815017417073
0.4384765625,548.7560943234712
0.439453125,541.40495355241
0.4404296875,530.3782423958182
0.44140625,517.2512053046376
0.4423828125,502.5489237625152
0.443359375,492.57237557321787
0.4443359375,483.645990351215
0.4453125,475.24468661285937
0.4462890625,467.36846435815096
0.447265625,462.1176495216787
0.4482421875,457.39191616885364
0.44921875,455.81667171791196
0.4501953125,458.9671606197953
0.451171875,466.3183013908565
0.4521484375,474.1945236455649
0.453125,483.1209088675678
0.4541015625,492.57237557321787
0.455078125,499.92351634427905
0.4560546875,506.749575631693
0.45703125,516.2010423373431
0.4580078125,528.8029979448766
0.458984375,538.7795461341739
0.4599609375,547.7059313561767
0.4609375,554.5319906435907
0.4619140625,556.1072350945324
0.462890625,553.4818276762962
0.4638671875,549.8062572907656
0.46484375,544.0303609706461
0.4658203125,537.7293831668794
0.466796875,530.9033238794655
0.4677734375,519.8766127228737
0.46875,506.749575631693
0.4697265625,492.57237557321787
0.470703125,478.92025699838996
0.4716796875,465.7932199072093
0.47265625,455.81667171791196
0.4736328125,449.51569391414523
0.474609375,446.36520501226187
0.4755859375,447.4153679795563
0.4765625,451.61601984873414
0.4775390625,457.39191616885364
0.478515625,462.1176495216787
0.4794921875,464.2179754562676
0.48046875,468.4186273254454
0.4814453125,475.7697680965066
0.482421875,483.645990351215
0.4833984375,492.57237557321787
0.484375,502.5489237625152
0.4853515625,510.4251460172236
0.486328125,514.1007164027542
0.4873046875,515.6759608536959
0.48828125,516.2010423373431
0.4892578125,515.1508793700486
0.490234375,515.1508793700486
0.4912109375,517.7762867882848
0.4921875,520.9267756901681
0.4931640625,518.8264497555792
0.494140625,514.1007164027542
0.4951171875,506.749575631693
0.49609375,499.3984348606318
0.4970703125,493.6225385405123
0.498046875,492.57237557321787
0.4990234375,494.6727015078068
0.5,494.6727015078068
0.5009765625,495.72286447510123
0.501953125,492.57237557321787
0.5029296875,489.4218866713345
0.50390625,487.8466422203928
0.5048828125,490.9971311222762
0.505859375,494.6727015078068
0.5068359375,498.8733533769846
0.5078125,500.9736793115735
0.5087890625,500.9736793115735
0.509765625,498.34827189333737
0.5107421875,494.6727015078068
0.51171875,493.0974570568651
0.5126953125,494.14762002415955
0.513671875,492.04729408957064
0.5146484375,488.8968051876873
0.515625,485.2212348021567
0.5166015625,479.4453384820372
0.517578125,476.2948495801538
0.5185546875,477.8700940310955
0.51953125,483.1209088675678
0.5205078125,487.3215607367456
0.521484375,490.47204963862896
0.5224609375,488.8968051876873
0.5234375,484.17107183486223
0.5244140625,478.92025699838996
0.525390625,477.3450125474483
0.5263671875,477.8700940310955
0.52734375,478.92025699838996
0.5283203125,481.02058293297887
0.529296875,482.59582738392055
0.5302734375,482.59582738392055
0.53125,483.645990351215
0.5322265625,489.94696815498173
0.533203125,498.34827189333737
0.5341796875,507.79973859898746
0.53515625,516.7261238209903
0.5361328125,524.6023460756987
0.537109375,527.2277534939349
0.5380859375,527.2277534939349
0.5390625,528.2779164612293
0.5400390625,527.7528349775821
0.541015625,526.1775905266404
0.5419921875,523.027101624757
0.54296875,518.8264497555792
0.5439453125,510.4251460172236
0.544921875,501.49876079522073
0.5458984375,494.6727015078068
0.546875,487.8466422203928
0.5478515625,479.4453384820372
0.548828125,472.094197710976
0.5498046875,467.36846435815096
0.55078125,460.0173235870898
0.5517578125,453.71634578332305
0.552734375,449.51569391414523
0.5537109375,446.8902864959091
0.5546875,444.26487907767296
0.5556640625,444.26487907767296
0.556640625,446.8902864959091
0.5576171875,448.990612430498
0.55859375,452.6661828160286
0.5595703125,461.06748655438423
0.560546875,473.14436067827046
0.5615234375,485.7463162858039
0.5625,499.92351634427905
0.5634765625,514.1007164027542
0.564453125,525.127427559346
0.5654296875,530.3782423958182
0.56640625,535.1039757486433
0.5673828125,539.3046276178211
0.568359375,542.4551165197045
0.5693359375,545.0805239379406
0.5703125,547.1808498725295
0.5712890625,547.7059313561767
0.572265625,545.0805239379406
0.5732421875,540.3547905851156
0.57421875,533.0036498140544
0.5751953125,523.027101624757
0.576171875,513.0505534354597
0.5771484375,504.12416821345687
0.578125,495.72286447510123
0.5791015625,486.79647925309837
0.580078125,477.3450125474483
0.5810546875,467.36846435815096
0.58203125,456.8668346852064
0.5830078125,449.51569391414523
0.583984375,446.36520501226187
0.5849609375,447.4153679795563
0.5859375,449.51569391414523
0.5869140625,454.7665087506175
0.587890625,460.542405070737
0.5888671875,463.69289397262037
0.58984375,466.3183013908565
0.5908203125,473.6694421619177
0.591796875,485.2212348021567
0.5927734375,498.8733533769846
0.59375,515.1508793700486
0.5947265625,529.853160912171
0.595703125,538.7795461341739
0.5966796875,541.9300350360572
0.59765625,544.0303609706461
0.5986328125,544.0303609706461
0.599609375,542.4551165197045
0.6005859375,540.3547905851156
0.6015625,534.0538127813488
0.6025390625,519.8766127228737
0.603515625,501.49876079522073
0.6044921875,483.1209088675678
0.60546875,465.26813842356205
0.6064453125,447.94044946320355
0.607421875,436.38865682296455
0.6083984375,428.51243456825614
0.609375,419.5860493462533
0.6103515625,413.8101530261338
0.611328125,413.28507154248655
0.6123046875,415.38539747707546
0.61328125,421.6863752808422
0.6142578125,434.81341237202287
0.615234375,452.14110133238137
0.6162109375,470.5189532600343
0.6171875,490.9971311222762
0.6181640625,512.5254719518125
0.619140625,534.578894264996
0.6201171875,557.1573980618268
0.62109375,579.7359018586576
0.6220703125,601.2642426881939
0.623046875,618.5919316485524
0.6240234375,631.1938872560859
0.625,638.545028027147
0.6259765625,639.5951909944415
0.626953125,636.9697835762054
0.6279296875,631.1938872560859
0.62890625,623.8427464850247
0.6298828125,614.3912797793746
0.630859375,599.6889982372522
0.6318359375,580.2609833423048
0.6328125,556.1072350945324
0.6337890625,526.7026720102876
0.634765625,497.2981089260429
0.6357421875,469.9938717763871
0.63671875,445.3150420449674
0.6376953125,426.41210863366723
0.638671875,412.7599900588393
0.6396484375,401.73327890224755
0.640625,391.75673071295023
0.6416015625,384.9306714255363
0.642578125,384.40558994188905
0.6435546875,390.18148626200855
0.64453125,400.6831159349531
0.6455078125,414.86031599342823
