Time (s),Distance
0.0,631.7189687397331
0.0009765625,633.2942131906748
0.001953125,638.0199465434998
0.0029296875,643.2707613799721
0.00390625,644.3209243472666
0.0048828125,638.0199465434998
0.005859375,628.5684798378497
0.0068359375,611.2407908774912
0.0078125,588.1372055970132
0.0087890625,568.7091907020658
0.009765625,555.5821536108851
0.0107421875,546.6557683888823
0.01171875,535.6290572322905
0.0126953125,527.2277534939349
0.013671875,516.7261238209903
0.0146484375,504.6492496971041
0.015625,495.72286447510123
0.0166015625,495.72286447510123
0.017578125,504.12416821345687
0.0185546875,514.6257978864014
0.01953125,523.5521831084043
0.0205078125,527.2277534939349
0.021484375,527.2277534939349
0.0224609375,535.1039757486433
0.0234375,553.4818276762962
0.0244140625,579.7359018586576
0.025390625,610.1906279101968
0.0263671875,636.4447020925581
0.02734375,652.197146601975
0.0283203125,654.2974725365639
0.029296875,659.0232058893889
0.0302734375,663.2238577585667
0.03125,664.2740207258612
0.0322265625,668.9997540786862
0.033203125,669.5248355623335
0.0341796875,662.6987762749195
0.03515625,642.2205984126776
0.0361328125,622.7925835177302
0.037109375,604.4147315900773
0.0380859375,590.2375315316021
0.0390625,580.786064825952
0.0400390625,577.6355759240687
0.041015625,568.7091907020658
0.0419921875,556.1072350945324
0.04296875,538.7795461341739
0.0439453125,520.9267756901681
0.044921875,505.1743311807513
0.0458984375,497.2981089260429
0.046875,495.72286447510123
0.0478515625,494.14762002415955
0.048828125,493.6225385405123
0.0498046875,491.5222126059234
0.05078125,488.37172370404005
0.0517578125,487.3215607367456
0.052734375,499.3984348606318
0.0537109375,518.8264497555792
0.0546875,535.1039757486433
0.0556640625,546.130686905235
0.056640625,550.3313387744129
0.0576171875,550.3313387744129
0.05859375,550.8564202580601
0.0595703125,562.9332943819463
0.060546875,583.9365537278354
0.0615234375,602.3144056554884
0.0625,615.9665242303163
0.0634765625,617.541768681258
0.064453125,609.1404649429023
0.0654296875,599.6889982372522
0.06640625,597.0635908190161
0.0673828125,602.8394871391356
0.068359375,609.1404649429023
0.0693359375,610.1906279101968
0.0703125,603.3645686227828
0.0712890625,583.9365537278354
0.072265625,565.5587018001825
0.0732421875,553.4818276762962
0.07421875,553.4818276762962
0.0751953125,558.2075610291213
0.076171875,566.6088647674769
0.0771484375,567.1339462511241
0.078125,560.8329684473574
0.0791015625,554.5319906435907
0.080078125,557.1573980618268
0.0810546875,568.7091907020658
0.08203125,586.0368796624243
0.0830078125,602.8394871391356
0.083984375,610.715709393844
0.0849609375,611.7658723611385
0.0859375,608.0903019756079
0.0869140625,609.1404649429023
0.087890625,614.9163612630218
0.0888671875,628.0433983542025
0.08984375,642.7456798963249
0.0908203125,650.096820667386
0.091796875,647.4714132491499
0.0927734375,640.1202724780887
0.09375,632.2440502233803
0.0947265625,625.9430724196136
0.095703125,622.7925835177302
0.0966796875,620.1671760994941
0.09765625,615.441442746669
0.0986328125,601.2642426881939
0.099609375,580.2609833423048
0.1005859375,552.956746192649
0.1015625,535.1039757486433
0.1025390625,524.0772645920515
0.103515625,520.4016942065209
0.1044921875,514.6257978864014
0.10546875,505.69941266439855
0.1064453125,490.47204963862896
0.107421875,471.5691162273288
0.1083984375,460.542405070737
0.109375,459.49224210344255
0.1103515625,464.7430569399148
0.111328125,465.26813842356205
0.1123046875,466.3183013908565
0.11328125,462.6427310053259
0.1142578125,457.91699765250087
0.115234375,462.1176495216787
0.1162109375,478.92025699838996
0.1171875,503.0740052461624
0.1181640625,535.1039757486433
0.119140625,568.7091907020658
0.1201171875,597.0635908190161
0.12109375,617.0166871976107
0.1220703125,635.3945391252637
0.123046875,660.5984503403306
0.1240234375,687.3776060063392
0.125,711.0062727704644
0.1259765625,726.7587172798812
0.126953125,735.1600210182369
0.1279296875,732.5346136000007
0.12890625,722.5580654107034
0.1298828125,713.1065987050533
0.130859375,705.7554579339921
0.1318359375,694.2036652937531
0.1328125,675.300731882453
0.1337890625,646.9463317655027
0.134765625,609.1404649429023
0.1357421875,567.1339462511241
0.13671875,528.2779164612293
0.1376953125,496.7730274423957
0.138671875,468.94370880909264
0.1396484375,447.94044946320355
0.140625,429.5625975355506
0.1416015625,414.86031599342823
0.142578125,405.93393077142537
0.1435546875,408.0342567060143
0.14453125,419.5860493462533
0.1455078125,437.438819790259
0.146484375,462.6427310053259
0.1474609375,485.7463162858039
0.1484375,504.12416821345687
0.1494140625,520.9267756901681
0.150390625,545.0805239379406
0.1513671875,571.8596796039492
0.15234375,603.88965010643
0.1533203125,642.2205984126776
0.154296875,673.200405947864
0.1552734375,694.7287467774004
0.15625,705.2303764503449
0.1572265625,706.2805394176394
0.158203125,699.9795616138726
0.1591796875,694.2036652937531
0.16015625,691.0531763918698
0.1611328125,680.026465235278
0.162109375,657.9730429220945
0.1630859375,626.4681539032608
0.1640625,587.612124113366
0.1650390625,548.7560943234712
0.166015625,514.6257978864014
0.1669921875,493.0974570568651
0.16796875,477.3450125474483
0.1689453125,463.69289397262037
0.169921875,448.4655309468508
0.1708984375,435.3384938556701
0.171875,430.0876790191978
0.1728515625,432.71308643743396
0.173828125,448.990612430498
0.1748046875,477.3450125474483
0.17578125,504.6492496971041
0.1767578125,529.3280794285238
0.177734375,548.7560943234712
0.1787109375,570.8095166366547
0.1796875,593.3880204334855
0.1806640625,620.6922575831413
0.181640625,650.096820667386
0.1826171875,676.3508948497474
0.18359375,692.6284208428115
0.1845703125,692.1033393591642
0.185546875,681.6017096862197
0.1865234375,666.3743466604501
0.1875,654.2974725365639
0.1884765625,638.545028027147
0.189453125,620.6922575831413
0.1904296875,597.0635908190161
0.19140625,567.1339462511241
0.1923828125,528.2779164612293
0.193359375,494.6727015078068
0.1943359375,471.04403474368155
0.1953125,458.9671606197953
0.1962890625,452.14110133238137
0.197265625,450.04077539779246
0.1982421875,448.990612430498
0.19921875,442.6896346267313
0.2001953125,437.438819790259
0.201171875,443.2147161103785
0.2021484375,460.542405070737
0.203125,479.4453384820372
0.2041015625,503.59908672980964
0.205078125,526.7026720102876
0.2060546875,544.0303609706461
0.20703125,556.1072350945324
0.2080078125,574.4850870221853
0.208984375,598.6388352699578
0.2099609375,616.4916057139635
0.2109375,631.7189687397331
0.2119140625,642.7456798963249
0.212890625,645.371087314561
0.2138671875,638.0199465434998
0.21484375,630.1437242887914
0.2158203125,621.7424205504358
0.216796875,610.715709393844
0.2177734375,599.6889982372522
0.21875,592.337857466191
0.2197265625,582.886390760541
0.220703125,571.334598120302
0.2216796875,562.4082128982991
0.22265625,556.1072350945324
0.2236328125,551.9065832253546
0.224609375,546.130686905235
0.2255859375,540.3547905851156
0.2265625,534.0538127813488
0.2275390625,527.2277534939349
0.228515625,517.7762867882848
0.2294921875,513.0505534354597
0.23046875,509.37498304992914
0.2314453125,510.9502275008708
0.232421875,514.1007164027542
0.2333984375,520.9267756901681
0.234375,529.853160912171
0.2353515625,540.8798720687628
0.236328125,546.130686905235
0.2373046875,552.956746192649
0.23828125,560.3078869637102
0.2392578125,567.1339462511241
0.240234375,576.060331473127
0.2412109375,579.7359018586576
0.2421875,584.4616352114826
0.2431640625,582.3613092768937
0.244140625,586.5619611460716
0.2451171875,589.7124500479549
0.24609375,592.8629389498383
0.2470703125,594.9632648844272
0.248046875,593.9131019171327
0.2490234375,586.5619611460716
0.25,573.4349240548909
0.2509765625,564.508538832888
0.251953125,555.5821536108851
0.2529296875,549.8062572907656
0.25390625,546.6557683888823
0.2548828125,544.0303609706461
0.255859375,539.3046276178211
0.2568359375,531.4284053631127
0.2578125,524.0772645920515
0.2587890625,523.5521831084043
0.259765625,526.7026720102876
0.2607421875,532.4785683304071
0.26171875,536.679220199585
0.2626953125,535.6290572322905
0.263671875,526.7026720102876
0.2646484375,513.575634919107
0.265625,506.749575631693
0.2666015625,503.0740052461624
0.267578125,507.27465711534023
0.2685546875,507.79973859898746
0.26953125,507.79973859898746
0.2705078125,508.3248200826347
0.271484375,510.9502275008708
0.2724609375,519.8766127228737
0.2734375,542.9801980033517
0.2744140625,572.9098425712436
0.275390625,597.5886723026633
0.2763671875,614.9163612630218
0.27734375,627.5183168705553
0.2783203125,635.3945391252637
0.279296875,642.2205984126776
0.2802734375,650.6219021510333
0.28125,659.0232058893889
0.2822265625,664.7991022095084
0.283203125,666.8994281440973
0.2841796875,663.2238577585667
0.28515625,658.4981244057417
0.2861328125,653.2473095692694
0.287109375,644.8460058309138
0.2880859375,631.7189687397331
0.2890625,617.0166871976107
0.2900390625,600.7391612045467
0.291015625,581.3111463095993
0.2919921875,559.782805480063
0.29296875,536.679220199585
0.2939453125,517.2512053046376
0.294921875,503.59908672980964
0.2958984375,494.6727015078068
0.296875,492.57237557321787
0.2978515625,498.8733533769846
0.298828125,508.8499015662819
0.2998046875,516.7261238209903
0.30078125,523.5521831084043
0.3017578125,531.9534868467599
0.302734375,538.7795461341739
0.3037109375,545.0805239379406
0.3046875,560.8329684473574
0.3056640625,581.3111463095993
0.306640625,595.4883463680744
0.3076171875,604.9398130737245
0.30859375,620.6922575831413
0.3095703125,630.6688057724386
0.310546875,635.9196206089109
0.3115234375,640.1202724780887
0.3125,643.7958428636193
0.3134765625,638.545028027147
0.314453125,626.993235386908
0.3154296875,608.0903019756079
0.31640625,585.5117981787771
0.3173828125,562.9332943819463
0.318359375,547.1808498725295
0.3193359375,535.6290572322905
0.3203125,525.127427559346
0.3212890625,518.8264497555792
0.322265625,512.0003904681653
0.3232421875,505.69941266439855
0.32421875,503.59908672980964
0.3251953125,513.575634919107
0.326171875,529.853160912171
0.3271484375,551.9065832253546
0.328125,576.5854129567742
0.3291015625,592.8629389498383
0.330078125,597.5886723026633
0.3310546875,598.6388352699578
0.33203125,602.3144056554884
0.3330078125,607.5652204919606
0.333984375,617.541768681258
0.3349609375,633.819294674322
0.3359375,645.371087314561
0.3369140625,647.4714132491499
0.337890625,643.2707613799721
0.3388671875,636.4447020925581
0.33984375,625.9430724196136
0.3408203125,617.541768681258
0.341796875,614.9163612630218
0.3427734375,603.3645686227828
0.34375,580.2609833423048
0.3447265625,549.8062572907656
0.345703125,515.1508793700486
0.3466796875,478.92025699838996
0.34765625,451.0909383650869
0.3486328125,429.5625975355506
0.349609375,406.4590122550726
0.3505859375,382.83034549094737
0.3515625,362.87724911235273
0.3525390625,346.07464163564146
0.353515625,336.09809344634414
0.3544921875,338.7235008645803
0.35546875,353.95086389034986
0.3564453125,372.85379730165005
0.357421875,394.38213813118637
0.3583984375,422.2114567644894
0.359375,450.04077539779246
0.3603515625,479.9704199656844
0.361328125,517.7762867882848
0.3623046875,558.2075610291213
0.36328125,594.43818340078
0.3642578125,623.8427464850247
0.365234375,649.5717391837388
0.3662109375,667.9495911113918
0.3671875,682.1267911698669
0.3681640625,694.7287467774004
0.369140625,701.0297245811671
0.3701171875,695.7789097446948
0.37109375,683.1769541371614
0.3720703125,664.2740207258612
0.373046875,639.0701095107943
0.3740234375,608.6153834592551
0.375,580.2609833423048
0.3759765625,555.0570721272379
0.376953125,528.2779164612293
0.3779296875,505.69941266439855
0.37890625,490.9971311222762
0.3798828125,485.7463162858039
0.380859375,481.5456644166261
0.3818359375,477.8700940310955
0.3828125,477.3450125474483
0.3837890625,480.49550144933164
0.384765625,484.17107183486223
0.3857421875,495.197782991454
0.38671875,512.5254719518125
0.3876953125,535.1039757486433
0.388671875,559.782805480063
0.3896484375,583.4114722441882
0.390625,599.6889982372522
0.3916015625,617.0166871976107
0.392578125,631.1938872560859
0.3935546875,641.6955169290304
0.39453125,645.8961687982082
0.3955078125,646.4212502818555
0.396484375,638.545028027147
0.3974609375,620.6922575831413
0.3984375,602.3144056554884
0.3994140625,583.9365537278354
0.400390625,565.5587018001825
0.4013671875,550.3313387744129
0.40234375,536.679220199585
0.4033203125,515.6759608536959
0.404296875,494.6727015078068
0.4052734375,478.92025699838996
0.40625,471.5691162273288
0.4072265625,470.5189532600343
0.408203125,476.81993106380105
0.4091796875,486.79647925309837
0.41015625,493.6225385405123
0.4111328125,500.4485978279263
0.412109375,510.4251460172236
0.4130859375,534.0538127813488
0.4140625,564.508538832888
0.4150390625,594.9632648844272
0.416015625,617.541768681258
0.4169921875,628.5684798378497
0.41796875,628.0433983542025
0.4189453125,618.5919316485524
0.419921875,608.6153834592551
0.4208984375,600.7391612045467
0.421875,597.0635908190161
0.4228515625,590.2375315316021
0.423828125,577.1104944404215
0.4248046875,555.5821536108851
0.42578125,530.3782423958182
0.4267578125,506.749575631693
0.427734375,489.4218866713345
0.4287109375,479.4453384820372
0.4296875,476.81993106380105
0.4306640625,475.7697680965066
0.431640625,474.1945236455649
0.4326171875,474.71960512921214
0.43359375,477.8700940310955
0.4345703125,482.0707459002733
0.435546875,496.24794595874846
0.4365234375,516.2010423373431
0.4375,537.7293831668794
0.4384765625,554.5319906435907
0.439453125,575.0101685058326
0.4404296875,593.3880204334855
0.44140625,607.5652204919606
0.4423828125,625.4179909359664
0.443359375,646.9463317655027
0.4443359375,666.3743466604501
0.4453125,678.9763022679836
0.4462890625,692.1033393591642
0.447265625,698.9293986465782
0.4482421875,697.8792356792837
0.44921875,691.0531763918698
0.4501953125,686.3274430390447
0.451171875,680.026465235278
0.4521484375,666.8994281440973
0.453125,647.4714132491499
0.4541015625,626.993235386908
0.455078125,601.7893241718411
0.4560546875,571.334598120302
0.45703125,544.0303609706461
0.4580078125,517.2512053046376
0.458984375,493.6225385405123
0.4599609375,472.61927919462323
0.4609375,457.39191616885364
0.4619140625,446.8902864959091
0.462890625,442.16455314308405
0.4638671875,445.84012352861464
0.46484375,457.39191616885364
0.4658203125,473.6694421619177
0.466796875,493.0974570568651
0.4677734375,518.301368271932
0.46875,540.8798720687628
0.4697265625,567.1339462511241
0.470703125,593.3880204334855
0.4716796875,616.4916057139635
0.47265625,633.819294674322
0.4736328125,646.4212502818555
0.474609375,652.197146601975
0.4755859375,653.2473095692694
0.4765625,651.1469836346805
0.4775390625,641.1704354453832
0.478515625,629.093561321497
0.4794921875,615.9665242303163
0.48046875,605.4648945573717
0.4814453125,589.7124500479549
0.482421875,578.6857388913631
0.4833984375,568.1841092184186
0.484375,562.4082128982991
0.4853515625,550.3313387744129
0.486328125,541.9300350360572
0.4873046875,537.2043016832322
0.48828125,533.5287312977016
0.4892578125,530.3782423958182
0.490234375,531.9534868467599
0.4912109375,537.7293831668794
0.4921875,545.0805239379406
0.4931640625,554.0069091599435
0.494140625,564.508538832888
0.4951171875,578.6857388913631
0.49609375,593.3880204334855
0.4970703125,607.0401390083134
0.498046875,619.6420946158469
0.4990234375,623.8427464850247
0.5,618.5919316485524
0.5009765625,610.715709393844
0.501953125,602.8394871391356
0.5029296875,596.5385093353689
0.50390625,592.8629389498383
0.5048828125,589.7124500479549
0.505859375,582.886390760541
0.5068359375,569.234272185713
0.5078125,555.0570721272379
0.5087890625,541.9300350360572
0.509765625,536.1541387159377
0.5107421875,535.6290572322905
0.51171875,540.3547905851156
0.5126953125,541.9300350360572
0.513671875,537.2043016832322
0.5146484375,531.4284053631127
0.515625,528.8029979448766
0.5166015625,530.9033238794655
0.517578125,540.8798720687628
0.5185546875,559.2577239964157
0.51953125,573.4349240548909
0.5205078125,579.7359018586576
0.521484375,580.2609833423048
0.5224609375,578.6857388913631
0.5234375,577.1104944404215
0.5244140625,581.3111463095993
0.525390625,587.0870426297188
0.5263671875,585.5117981787771
0.52734375,576.060331473127
0.5283203125,560.3078869637102
0.529296875,533.0036498140544
0.5302734375,506.749575631693
0.53125,492.04729408957064
0.5322265625,483.645990351215
0.533203125,479.4453384820372
0.5341796875,477.3450125474483
0.53515625,472.61927919462323
0.5361328125,461.59256803803146
0.537109375,455.81667171791196
0.5380859375,463.16781248897314
0.5390625,482.59582738392055
0.5400390625,503.59908672980964
0.541015625,525.6525090429932
0.5419921875,538.2544646505266
0.54296875,543.5052794869989
0.5439453125,547.7059313561767
0.544921875,558.7326425127685
0.5458984375,580.786064825952
0.546875,608.0903019756079
0.5478515625,636.4447020925581
0.548828125,653.2473095692694
0.5498046875,661.1235318239778
0.55078125,665.8492651768029
0.5517578125,667.9495911113918
0.552734375,662.6987762749195
0.5537109375,656.9228799548
0.5546875,647.4714132491499
0.5556640625,630.1437242887914
0.556640625,603.3645686227828
0.5576171875,577.1104944404215
0.55859375,559.2577239964157
0.5595703125,542.9801980033517
0.560546875,533.5287312977016
0.5615234375,529.3280794285238
0.5625,524.0772645920515
0.5634765625,511.47530898451805
0.564453125,500.4485978279263
0.5654296875,497.82319040969014
0.56640625,498.34827189333737
0.5673828125,504.6492496971041
0.568359375,517.7762867882848
0.5693359375,531.4284053631127
0.5703125,536.1541387159377
0.5712890625,539.8297091014683
0.572265625,549.2811758071184
0.5732421875,563.4583758655936
0.57421875,578.6857388913631
0.5751953125,598.1137537863106
0.576171875,614.3912797793746
0.5771484375,622.267502034083
0.578125,618.5919316485524
0.5791015625,610.1906279101968
0.580078125,596.5385093353689
0.5810546875,586.5619611460716
0.58203125,583.9365537278354
0.5830078125,576.060331473127
0.583984375,560.8329684473574
0.5849609375,544.5554424542934
0.5859375,528.2779164612293
0.5869140625,512.0003904681653
0.587890625,505.1743311807513
0.5888671875,508.8499015662819
0.58984375,515.1508793700486
0.5908203125,510.4251460172236
0.591796875,504.6492496971041
0.5927734375,495.72286447510123
0.59375,487.3215607367456
0.5947265625,482.59582738392055
0.595703125,490.47204963862896
0.5966796875,503.0740052461624
0.59765625,515.1508793700486
0.5986328125,532.4785683304071
0.599609375,553.4818276762962
0.6005859375,575.5352499894798
0.6015625,593.9131019171327
0.6025390625,619.1170131321996
0.603515625,646.9463317655027
0.6044921875,670.5749985296279
0.60546875,687.3776060063392
0.6064453125,701.5548060648143
0.607421875,705.2303764503449
0.6083984375,697.3541541956365
0.609375,683.1769541371614
0.6103515625,671.6251614969224
0.611328125,660.5984503403306
0.6123046875,652.197146601975
0.61328125,647.9964947327971
0.6142578125,642.2205984126776
0.615234375,631.1938872560859
0.6162109375,615.9665242303163
0.6171875,597.0635908190161
0.6181640625,581.8362277932465
0.619140625,570.8095166366547
0.6201171875,558.2075610291213
0.62109375,543.5052794869989
0.6220703125,526.1775905266404
0.623046875,506.749575631693
0.6240234375,488.37172370404005
0.625,480.49550144933164
0.6259765625,489.4218866713345
0.626953125,506.2244941480458
0.6279296875,520.4016942065209
0.62890625,527.2277534939349
0.6298828125,533.0036498140544
0.630859375,534.578894264996
0.6318359375,535.1039757486433
0.6328125,544.0303609706461
0.6337890625,563.4583758655936
0.634765625,579.2108203750104
0.6357421875,586.5619611460716
0.63671875,588.1372055970132
0.6376953125,590.7626130152494
0.638671875,591.8127759825438
0.6396484375,598.1137537863106
0.640625,617.541768681258
0.6416015625,635.9196206089109
0.642578125,639.0701095107943
0.6435546875,629.6186428051442
0.64453125,612.2909538447857
0.6455078125,585.5117981787771
0.646484375,559.782805480063
0.6474609375,547.7059313561767
0.6484375,542.4551165197045
0.6494140625,539.8297091014683
