Time (s),Distance
0.0,669.5248355623335
0.0009765625,681.0766282025725
0.001953125,692.6284208428115
0.0029296875,702.6049690321088
0.00390625,707.855783868581
0.0048828125,709.4310283195227
0.005859375,707.3307023849338
0.0068359375,704.7052949666977
0.0078125,700.5046430975199
0.0087890625,693.1535023264587
0.009765625,681.6017096862197
0.0107421875,667.4245096277446
0.01171875,655.8727169875056
0.0126953125,646.4212502818555
0.013671875,636.9697835762054
0.0146484375,626.4681539032608
0.015625,618.0668501649052
0.0166015625,610.715709393844
0.017578125,604.9398130737245
0.0185546875,601.2642426881939
0.01953125,599.6889982372522
0.0205078125,601.2642426881939
0.021484375,602.8394871391356
0.0224609375,604.4147315900773
0.0234375,608.6153834592551
0.0244140625,613.8661982957274
0.025390625,620.6922575831413
0.0263671875,626.993235386908
0.02734375,634.3443761579692
0.0283203125,643.7958428636193
0.029296875,653.7723910529166
0.0302734375,662.1736947912723
0.03125,667.9495911113918
0.0322265625,672.1502429805696
0.033203125,675.300731882453
0.0341796875,676.8759763333946
0.03515625,675.8258133661002
0.0361328125,672.6753244642168
0.037109375,668.474672595039
0.0380859375,663.2238577585667
0.0390625,655.8727169875056
0.0400390625,646.9463317655027
0.041015625,638.0199465434998
0.0419921875,628.5684798378497
0.04296875,619.6420946158469
0.0439453125,611.2407908774912
0.044921875,604.4147315900773
0.0458984375,598.1137537863106
0.046875,594.43818340078
0.0478515625,596.0134278517216
0.048828125,600.7391612045467
0.0498046875,605.4648945573717
0.05078125,611.2407908774912
0.0517578125,617.541768681258
0.052734375,625.9430724196136
0.0537109375,635.3945391252637
0.0546875,644.8460058309138
0.0556640625,653.7723910529166
0.056640625,659.0232058893889
0.0576171875,662.6987762749195
0.05859375,666.8994281440973
0.0595703125,669.5248355623335
0.060546875,668.474672595039
0.0615234375,663.748939242214
0.0625,659.0232058893889
0.0634765625,654.8225540202111
0.064453125,650.096820667386
0.0654296875,643.7958428636193
0.06640625,633.819294674322
0.0673828125,621.2173390667886
0.068359375,610.1906279101968
0.0693359375,602.3144056554884
0.0703125,595.4883463680744
0.0712890625,588.1372055970132
0.072265625,580.2609833423048
0.0732421875,575.5352499894798
0.07421875,574.4850870221853
0.0751953125,578.1606574077159
0.076171875,581.3111463095993
0.0771484375,582.886390760541
0.078125,585.5117981787771
0.0791015625,590.7626130152494
0.080078125,600.2140797208995
0.0810546875,611.2407908774912
0.08203125,620.6922575831413
0.0830078125,628.5684798378497
0.083984375,638.0199465434998
0.0849609375,648.5215762164444
0.0859375,659.0232058893889
0.0869140625,666.3743466604501
0.087890625,671.1000800132751
0.0888671875,673.7254874315113
0.08984375,674.7756503988057
0.0908203125,675.8258133661002
0.091796875,676.3508948497474
0.0927734375,674.2505689151585
0.09375,672.1502429805696
0.0947265625,670.0499170459807
0.095703125,667.9495911113918
0.0966796875,664.2740207258612
0.09765625,657.9730429220945
0.0986328125,650.6219021510333
0.099609375,644.8460058309138
0.1005859375,641.6955169290304
0.1015625,638.0199465434998
0.1025390625,634.3443761579692
0.103515625,631.1938872560859
0.1044921875,628.0433983542025
0.10546875,627.5183168705553
0.1064453125,627.5183168705553
0.107421875,626.993235386908
0.1083984375,625.9430724196136
0.109375,624.3678279686719
0.1103515625,622.7925835177302
0.111328125,624.8929094523191
0.1123046875,627.5183168705553
0.11328125,630.1437242887914
0.1142578125,630.6688057724386
0.115234375,631.7189687397331
0.1162109375,633.819294674322
0.1171875,636.4447020925581
0.1181640625,638.545028027147
0.119140625,638.0199465434998
0.1201171875,638.0199465434998
0.12109375,639.0701095107943
0.1220703125,641.1704354453832
0.123046875,643.2707613799721
0.1240234375,644.3209243472666
0.125,644.8460058309138
0.1259765625,644.3209243472666
0.126953125,644.8460058309138
0.1279296875,645.371087314561
0.12890625,644.8460058309138
0.1298828125,643.2707613799721
0.130859375,639.5951909944415
0.1318359375,634.8694576416165
0.1328125,630.1437242887914
0.1337890625,626.4681539032608
0.134765625,621.2173390667886
0.1357421875,615.9665242303163
0.13671875,611.7658723611385
0.1376953125,609.6655464265496
0.138671875,607.5652204919606
0.1396484375,605.4648945573717
0.140625,602.8394871391356
0.1416015625,600.7391612045467
0.142578125,601.7893241718411
0.1435546875,604.4147315900773
0.14453125,609.6655464265496
0.1455078125,617.0166871976107
0.146484375,623.3176650013775
0.1474609375,632.2440502233803
0.1484375,643.2707613799721
0.1494140625,654.2974725365639
0.150390625,662.1736947912723
0.1513671875,666.8994281440973
0.15234375,669.5248355623335
0.1533203125,672.6753244642168
0.154296875,674.7756503988057
0.1552734375,675.8258133661002
0.15625,674.7756503988057
0.1572265625,672.1502429805696
0.158203125,670.0499170459807
0.1591796875,668.474672595039
0.16015625,665.8492651768029
0.1611328125,661.1235318239778
0.162109375,654.8225540202111
0.1630859375,646.4212502818555
0.1640625,638.0199465434998
0.1650390625,631.1938872560859
0.166015625,625.9430724196136
0.1669921875,621.2173390667886
0.16796875,614.9163612630218
0.1689453125,610.715709393844
0.169921875,608.0903019756079
0.1708984375,608.0903019756079
0.171875,610.1906279101968
0.1728515625,609.1404649429023
0.173828125,608.0903019756079
0.1748046875,608.0903019756079
0.17578125,610.715709393844
0.1767578125,613.8661982957274
0.177734375,614.3912797793746
0.1787109375,613.8661982957274
0.1796875,613.8661982957274
0.1806640625,615.9665242303163
0.181640625,618.0668501649052
0.1826171875,617.541768681258
0.18359375,618.0668501649052
0.1845703125,617.541768681258
0.185546875,615.9665242303163
0.1865234375,616.4916057139635
0.1875,616.4916057139635
0.1884765625,617.0166871976107
0.189453125,614.9163612630218
0.1904296875,612.8160353284329
0.19140625,611.7658723611385
0.1923828125,611.2407908774912
0.193359375,612.2909538447857
0.1943359375,611.7658723611385
0.1953125,610.715709393844
0.1962890625,611.2407908774912
0.197265625,610.1906279101968
0.1982421875,611.7658723611385
0.19921875,610.715709393844
0.2001953125,612.8160353284329
0.201171875,615.441442746669
0.2021484375,620.6922575831413
0.203125,625.9430724196136
0.2041015625,630.6688057724386
0.205078125,636.4447020925581
0.2060546875,641.1704354453832
0.20703125,646.4212502818555
0.2080078125,651.1469836346805
0.208984375,652.197146601975
0.2099609375,651.6720651183277
0.2109375,650.6219021510333
0.2119140625,649.5717391837388
0.212890625,651.1469836346805
0.2138671875,651.6720651183277
0.21484375,647.4714132491499
0.2158203125,640.645353961736
0.216796875,634.8694576416165
0.2177734375,631.1938872560859
0.21875,628.0433983542025
0.2197265625,621.7424205504358
0.220703125,613.3411168120801
0.2216796875,605.4648945573717
0.22265625,602.8394871391356
0.2236328125,603.3645686227828
0.224609375,606.5150575246662
0.2255859375,607.5652204919606
0.2265625,609.6655464265496
0.2275390625,613.3411168120801
0.228515625,618.0668501649052
0.2294921875,624.3678279686719
0.23046875,629.093561321497
0.2314453125,632.7691317070276
0.232421875,635.3945391252637
0.2333984375,638.545028027147
0.234375,643.2707613799721
0.2353515625,647.4714132491499
0.236328125,650.6219021510333
0.2373046875,652.197146601975
0.23828125,652.197146601975
0.2392578125,652.197146601975
0.240234375,651.1469836346805
0.2412109375,647.9964947327971
0.2421875,641.6955169290304
0.2431640625,632.7691317070276
0.244140625,623.8427464850247
0.2451171875,615.9665242303163
0.24609375,609.1404649429023
0.2470703125,602.8394871391356
0.248046875,596.0134278517216
0.2490234375,590.7626130152494
0.25,588.1372055970132
0.2509765625,588.1372055970132
0.251953125,589.7124500479549
0.2529296875,591.2876944988966
0.25390625,592.8629389498383
0.2548828125,597.0635908190161
0.255859375,604.4147315900773
0.2568359375,614.3912797793746
0.2578125,623.3176650013775
0.2587890625,630.6688057724386
0.259765625,638.0199465434998
0.2607421875,647.9964947327971
0.26171875,660.0733688566834
0.2626953125,671.1000800132751
0.263671875,677.4010578170419
0.2646484375,681.0766282025725
0.265625,682.6518726535141
0.2666015625,685.2772800717503
0.267578125,688.4277689736336
0.2685546875,686.852524522692
0.26953125,680.5515467189252
0.2705078125,671.6251614969224
0.271484375,664.2740207258612
0.2724609375,659.0232058893889
0.2734375,652.197146601975
0.2744140625,641.1704354453832
0.275390625,628.0433983542025
0.2763671875,614.9163612630218
0.27734375,604.9398130737245
0.2783203125,597.0635908190161
0.279296875,589.1873685643077
0.2802734375,581.8362277932465
0.28125,578.1606574077159
0.2822265625,578.6857388913631
0.283203125,586.0368796624243
0.2841796875,596.0134278517216
0.28515625,604.9398130737245
0.2861328125,614.3912797793746
0.287109375,623.8427464850247
0.2880859375,635.9196206089109
0.2890625,649.0466577000916
0.2900390625,660.0733688566834
0.291015625,671.1000800132751
0.2919921875,680.5515467189252
0.29296875,688.4277689736336
0.2939453125,694.2036652937531
0.294921875,696.8290727119893
0.2958984375,695.7789097446948
0.296875,692.1033393591642
0.2978515625,686.852524522692
0.298828125,679.5013837516308
0.2998046875,670.5749985296279
0.30078125,661.648613307625
0.3017578125,652.197146601975
0.302734375,642.7456798963249
0.3037109375,634.3443761579692
0.3046875,624.3678279686719
0.3056640625,616.4916057139635
0.306640625,610.715709393844
0.3076171875,605.989976041019
0.30859375,604.4147315900773
0.3095703125,606.5150575246662
0.310546875,611.2407908774912
0.3115234375,616.4916057139635
0.3125,621.7424205504358
0.3134765625,627.5183168705553
0.314453125,633.819294674322
0.3154296875,641.6955169290304
0.31640625,648.5215762164444
0.3173828125,651.6720651183277
0.318359375,651.6720651183277
0.3193359375,649.5717391837388
0.3203125,651.1469836346805
0.3212890625,654.2974725365639
0.322265625,655.8727169875056
0.3232421875,653.7723910529166
0.32421875,649.0466577000916
0.3251953125,645.371087314561
0.326171875,643.7958428636193
0.3271484375,643.7958428636193
0.328125,642.2205984126776
0.3291015625,636.4447020925581
0.330078125,628.0433983542025
0.3310546875,621.7424205504358
0.33203125,617.541768681258
0.3330078125,613.8661982957274
0.333984375,610.715709393844
0.3349609375,605.989976041019
0.3359375,603.3645686227828
0.3369140625,605.989976041019
0.337890625,610.1906279101968
0.3388671875,614.3912797793746
0.33984375,617.0166871976107
0.3408203125,619.6420946158469
0.341796875,620.6922575831413
0.3427734375,623.3176650013775
0.34375,624.3678279686719
0.3447265625,622.7925835177302
0.345703125,619.1170131321996
0.3466796875,614.9163612630218
0.34765625,611.2407908774912
0.3486328125,607.0401390083134
0.349609375,601.2642426881939
0.3505859375,594.43818340078
0.3515625,588.6622870806605
0.3525390625,584.4616352114826
0.353515625,583.4114722441882
0.3544921875,584.4616352114826
0.35546875,587.0870426297188
0.3564453125,590.7626130152494
0.357421875,596.5385093353689
0.3583984375,604.9398130737245
0.359375,615.9665242303163
0.3603515625,628.0433983542025
0.361328125,638.0199465434998
0.3623046875,647.4714132491499
0.36328125,656.3977984711528
0.3642578125,664.2740207258612
0.365234375,669.5248355623335
0.3662109375,672.6753244642168
0.3671875,673.7254874315113
0.3681640625,670.0499170459807
0.369140625,664.7991022095084
0.3701171875,658.4981244057417
0.37109375,652.197146601975
0.3720703125,644.8460058309138
0.373046875,636.4447020925581
0.3740234375,630.6688057724386
0.375,625.4179909359664
0.3759765625,620.1671760994941
0.376953125,615.441442746669
0.3779296875,610.1906279101968
0.37890625,605.4648945573717
0.3798828125,603.88965010643
0.380859375,605.989976041019
0.3818359375,609.6655464265496
0.3828125,612.8160353284329
0.3837890625,618.0668501649052
0.384765625,623.8427464850247
0.3857421875,629.6186428051442
0.38671875,633.819294674322
0.3876953125,635.3945391252637
0.388671875,636.4447020925581
0.3896484375,635.3945391252637
0.390625,636.4447020925581
0.3916015625,639.0701095107943
0.392578125,640.645353961736
0.3935546875,641.1704354453832
0.39453125,640.1202724780887
0.3955078125,640.1202724780887
0.396484375,641.6955169290304
0.3974609375,642.2205984126776
0.3984375,641.1704354453832
0.3994140625,639.0701095107943
0.400390625,636.4447020925581
0.4013671875,635.9196206089109
0.40234375,635.9196206089109
0.4033203125,633.819294674322
0.404296875,631.1938872560859
0.4052734375,628.0433983542025
0.40625,625.4179909359664
0.4072265625,622.7925835177302
0.408203125,620.6922575831413
0.4091796875,618.5919316485524
0.41015625,614.9163612630218
0.4111328125,612.2909538447857
0.412109375,610.715709393844
0.4130859375,609.6655464265496
0.4140625,611.7658723611385
0.4150390625,614.3912797793746
0.416015625,615.9665242303163
0.4169921875,619.6420946158469
0.41796875,625.4179909359664
0.4189453125,631.1938872560859
0.419921875,635.9196206089109
0.4208984375,641.6955169290304
0.421875,648.5215762164444
0.4228515625,657.9730429220945
0.423828125,666.8994281440973
0.4248046875,673.7254874315113
0.42578125,678.4512207843363
0.4267578125,683.1769541371614
0.427734375,686.3274430390447
0.4287109375,689.4779319409281
0.4296875,692.6284208428115
0.4306640625,694.7287467774004
0.431640625,692.6284208428115
0.4326171875,686.852524522692
0.43359375,678.4512207843363
0.4345703125,670.0499170459807
0.435546875,660.0733688566834
0.4365234375,650.6219021510333
0.4375,639.0701095107943
0.4384765625,629.093561321497
0.439453125,621.2173390667886
0.4404296875,617.0166871976107
0.44140625,614.3912797793746
0.4423828125,613.3411168120801
0.443359375,612.2909538447857
0.4443359375,612.2909538447857
0.4453125,615.9665242303163
0.4462890625,618.5919316485524
0.447265625,622.267502034083
0.4482421875,627.5183168705553
0.44921875,632.7691317070276
0.4501953125,638.545028027147
0.451171875,645.8961687982082
0.4521484375,653.7723910529166
0.453125,660.0733688566834
0.4541015625,663.748939242214
0.455078125,665.8492651768029
0.4560546875,668.9997540786862
0.45703125,671.6251614969224
0.4580078125,668.9997540786862
0.458984375,663.2238577585667
0.4599609375,656.9228799548
0.4609375,649.0466577000916
0.4619140625,640.645353961736
0.462890625,631.7189687397331
0.4638671875,621.2173390667886
0.46484375,610.1906279101968
0.4658203125,598.6388352699578
0.466796875,589.7124500479549
0.4677734375,583.9365537278354
0.46875,579.2108203750104
0.4697265625,573.9600055385381
0.470703125,570.2844351530075
0.4716796875,571.334598120302
0.47265625,577.1104944404215
0.4736328125,587.612124113366
0.474609375,597.5886723026633
0.4755859375,605.989976041019
0.4765625,617.0166871976107
0.4775390625,630.1437242887914
0.478515625,644.3209243472666
0.4794921875,656.9228799548
0.48046875,666.8994281440973
0.4814453125,674.2505689151585
0.482421875,681.6017096862197
0.4833984375,687.9026874899864
0.484375,695.2538282610476
0.4853515625,699.9795616138726
0.486328125,700.5046430975199
0.4873046875,697.3541541956365
0.48828125,692.6284208428115
0.4892578125,690.0030134245753
0.490234375,685.8023615553975
0.4912109375,678.9763022679836
0.4921875,670.0499170459807
0.4931640625,659.5482873730361
0.494140625,652.7222280856222
0.4951171875,647.4714132491499
0.49609375,640.645353961736
0.4970703125,631.7189687397331
0.498046875,622.267502034083
0.4990234375,617.541768681258
0.5,616.4916057139635
0.5009765625,617.541768681258
0.501953125,617.0166871976107
0.5029296875,617.0166871976107
0.50390625,620.1671760994941
0.5048828125,624.3678279686719
0.505859375,631.7189687397331
0.5068359375,639.5951909944415
0.5078125,644.8460058309138
0.5087890625,647.9964947327971
0.509765625,651.1469836346805
0.5107421875,655.3476355038583
0.51171875,659.5482873730361
0.5126953125,660.5984503403306
0.513671875,655.8727169875056
0.5146484375,649.5717391837388
0.515625,645.8961687982082
0.5166015625,641.6955169290304
0.517578125,635.9196206089109
0.5185546875,625.9430724196136
0.51953125,615.9665242303163
0.5205078125,607.0401390083134
0.521484375,598.1137537863106
0.5224609375,589.7124500479549
0.5234375,581.8362277932465
0.5244140625,577.1104944404215
0.525390625,575.5352499894798
0.5263671875,576.5854129567742
0.52734375,579.7359018586576
0.5283203125,583.4114722441882
0.529296875,587.612124113366
0.5302734375,592.337857466191
0.53125,597.0635908190161
0.5322265625,604.9398130737245
0.533203125,615.441442746669
0.5341796875,625.4179909359664
0.53515625,635.3945391252637
0.5361328125,643.2707613799721
0.537109375,650.6219021510333
0.5380859375,655.3476355038583
0.5390625,658.4981244057417
0.5400390625,660.0733688566834
0.541015625,657.4479614384472
0.5419921875,652.197146601975
0.54296875,644.8460058309138
0.5439453125,637.4948650598526
0.544921875,631.7189687397331
0.5458984375,624.8929094523191
0.546875,615.9665242303163
0.5478515625,607.5652204919606
0.548828125,601.2642426881939
0.5498046875,597.5886723026633
0.55078125,596.0134278517216
0.5517578125,591.8127759825438
0.552734375,587.0870426297188
0.5537109375,583.4114722441882
0.5546875,583.9365537278354
0.5556640625,587.0870426297188
0.556640625,591.2876944988966
0.5576171875,594.43818340078
0.55859375,598.1137537863106
0.5595703125,604.9398130737245
0.560546875,613.8661982957274
0.5615234375,622.267502034083
0.5625,629.6186428051442
0.5634765625,634.8694576416165
0.564453125,639.5951909944415
0.5654296875,644.8460058309138
0.56640625,650.6219021510333
0.5673828125,654.2974725365639
0.568359375,655.8727169875056
0.5693359375,654.8225540202111
0.5703125,654.2974725365639
0.5712890625,653.7723910529166
0.572265625,652.7222280856222
0.5732421875,651.1469836346805
0.57421875,649.0466577000916
0.5751953125,646.4212502818555
0.576171875,642.7456798963249
0.5771484375,638.0199465434998
0.578125,631.7189687397331
0.5791015625,626.4681539032608
0.580078125,620.1671760994941
0.5810546875,613.8661982957274
0.58203125,607.0401390083134
0.5830078125,601.2642426881939
0.583984375,593.9131019171327
0.5849609375,586.0368796624243
0.5859375,579.2108203750104
0.5869140625,575.0101685058326
0.587890625,571.8596796039492
0.5888671875,570.2844351530075
0.58984375,567.6590277347714
0.5908203125,568.1841092184186
0.591796875,571.8596796039492
0.5927734375,578.6857388913631
0.59375,587.612124113366
0.5947265625,597.0635908190161
0.595703125,607.0401390083134
0.5966796875,618.0668501649052
0.59765625,630.1437242887914
0.5986328125,642.7456798963249
0.599609375,653.2473095692694
0.6005859375,662.1736947912723
0.6015625,668.9997540786862
0.6025390625,675.300731882453
0.603515625,679.5013837516308
0.6044921875,681.6017096862197
0.60546875,680.026465235278
0.6064453125,676.3508948497474
0.607421875,672.6753244642168
0.6083984375,667.4245096277446
0.609375,660.0733688566834
0.6103515625,649.5717391837388
0.611328125,637.4948650598526
0.6123046875,626.4681539032608
0.61328125,619.6420946158469
0.6142578125,614.9163612630218
0.615234375,610.715709393844
0.6162109375,604.9398130737245
0.6171875,600.2140797208995
0.6181640625,597.5886723026633
0.619140625,597.0635908190161
0.6201171875,597.5886723026633
0.62109375,596.0134278517216
0.6220703125,593.3880204334855
0.623046875,593.9131019171327
0.6240234375,598.6388352699578
0.625,606.5150575246662
0.6259765625,613.8661982957274
0.626953125,621.2173390667886
0.6279296875,628.5684798378497
0.62890625,634.3443761579692
0.6298828125,639.5951909944415
0.630859375,642.7456798963249
0.6318359375,645.8961687982082
0.6328125,649.0466577000916
0.6337890625,652.7222280856222
0.634765625,655.3476355038583
0.6357421875,655.3476355038583
0.63671875,654.8225540202111
0.6376953125,652.7222280856222
0.638671875,652.197146601975
0.6396484375,649.0466577000916
0.640625,643.7958428636193
0.6416015625,638.545028027147
0.642578125,633.819294674322
0.6435546875,632.2440502233803
0.64453125,630.6688057724386
0.6455078125,628.5684798378497
0.646484375,624.8929094523191
0.6474609375,619.1170131321996
0.6484375,617.0166871976107
0.6494140625,616.4916057139635
0.650390625,615.441442746669
0.6513671875,612.8160353284329
0.65234375,610.1906279101968
