Time (s),Distance
0.0,720.9828209597617
0.0009765625,722.5580654107034
0.001953125,723.6082283779979
0.0029296875,723.6082283779979
0.00390625,724.1333098616451
0.0048828125,725.1834728289396
0.005859375,726.233635796234
0.0068359375,726.7587172798812
0.0078125,726.7587172798812
0.0087890625,726.7587172798812
0.009765625,726.233635796234
0.0107421875,724.6583913452923
0.01171875,722.5580654107034
0.0126953125,720.4577394761145
0.013671875,718.8824950251728
0.0146484375,716.7821690905839
0.015625,715.2069246396422
0.0166015625,713.6316801887006
0.017578125,713.1065987050533
0.0185546875,712.0564357377589
0.01953125,712.0564357377589
0.0205078125,711.5313542541116
0.021484375,712.0564357377589
0.0224609375,713.1065987050533
0.0234375,713.6316801887006
0.0244140625,714.681843155995
0.025390625,717.3072505742311
0.0263671875,719.9326579924673
0.02734375,722.5580654107034
0.0283203125,724.1333098616451
0.029296875,726.7587172798812
0.0302734375,728.3339617308229
0.03125,728.8590432144701
0.0322265625,729.3841246981174
0.033203125,729.3841246981174
0.0341796875,729.3841246981174
0.03515625,728.8590432144701
0.0361328125,727.2837987635285
0.037109375,724.6583913452923
0.0380859375,721.507902443409
0.0390625,718.8824950251728
0.0400390625,716.2570876069367
0.041015625,714.1567616723478
0.0419921875,712.5815172214061
0.04296875,711.5313542541116
0.0439453125,711.0062727704644
0.044921875,711.0062727704644
0.0458984375,711.5313542541116
0.046875,712.5815172214061
0.0478515625,712.5815172214061
0.048828125,713.1065987050533
0.0498046875,714.1567616723478
0.05078125,715.7320061232895
0.0517578125,719.4075765088201
0.052734375,722.0329839270562
0.0537109375,723.0831468943506
0.0546875,724.1333098616451
0.0556640625,725.1834728289396
0.056640625,727.2837987635285
0.0576171875,728.3339617308229
0.05859375,727.2837987635285
0.0595703125,725.1834728289396
0.060546875,722.0329839270562
0.0615234375,720.4577394761145
0.0625,718.8824950251728
0.0634765625,716.7821690905839
0.064453125,713.6316801887006
0.0654296875,709.95610980317
0.06640625,708.3808653522283
0.0673828125,708.9059468358755
0.068359375,708.9059468358755
0.0693359375,707.855783868581
0.0703125,706.2805394176394
0.0712890625,705.2303764503449
0.072265625,706.2805394176394
0.0732421875,709.4310283195227
0.07421875,712.5815172214061
0.0751953125,713.1065987050533
0.076171875,714.1567616723478
0.0771484375,716.7821690905839
0.078125,720.4577394761145
0.0791015625,723.0831468943506
0.080078125,723.0831468943506
0.0810546875,722.0329839270562
0.08203125,722.0329839270562
0.0830078125,724.6583913452923
0.083984375,726.233635796234
0.0849609375,727.2837987635285
0.0859375,727.2837987635285
0.0869140625,726.233635796234
0.087890625,725.1834728289396
0.0888671875,724.1333098616451
0.08984375,723.0831468943506
0.0908203125,719.9326579924673
0.091796875,716.2570876069367
0.0927734375,713.1065987050533
0.09375,712.0564357377589
0.0947265625,711.5313542541116
0.095703125,712.0564357377589
0.0966796875,712.0564357377589
0.09765625,711.0062727704644
0.0986328125,710.4811912868172
0.099609375,710.4811912868172
0.1005859375,711.0062727704644
0.1015625,711.5313542541116
0.1025390625,712.5815172214061
0.103515625,713.6316801887006
0.1044921875,714.681843155995
0.10546875,716.7821690905839
0.1064453125,719.9326579924673
0.107421875,722.0329839270562
0.1083984375,723.0831468943506
0.109375,723.6082283779979
0.1103515625,723.0831468943506
0.111328125,723.0831468943506
0.1123046875,723.0831468943506
0.11328125,722.0329839270562
0.1142578125,719.9326579924673
0.115234375,716.7821690905839
0.1162109375,714.681843155995
0.1171875,713.6316801887006
0.1181640625,713.6316801887006
0.119140625,712.5815172214061
0.1201171875,711.0062727704644
0.12109375,710.4811912868172
0.1220703125,711.0062727704644
0.123046875,712.5815172214061
0.1240234375,713.1065987050533
0.125,712.5815172214061
0.1259765625,712.5815172214061
0.126953125,714.681843155995
0.1279296875,717.8323320578784
0.12890625,722.0329839270562
0.1298828125,724.1333098616451
0.130859375,725.7085543125868
0.1318359375,727.2837987635285
0.1328125,727.8088802471757
0.1337890625,729.3841246981174
0.134765625,729.3841246981174
0.1357421875,727.8088802471757
0.13671875,726.233635796234
0.1376953125,725.7085543125868
0.138671875,727.2837987635285
0.1396484375,727.8088802471757
0.140625,727.2837987635285
0.1416015625,726.233635796234
0.142578125,725.1834728289396
0.1435546875,724.1333098616451
0.14453125,723.0831468943506
0.1455078125,722.0329839270562
0.146484375,720.4577394761145
0.1474609375,718.8824950251728
0.1484375,718.8824950251728
0.1494140625,718.8824950251728
0.150390625,718.8824950251728
0.1513671875,719.4075765088201
0.15234375,720.4577394761145
0.1533203125,723.0831468943506
0.154296875,725.7085543125868
0.1552734375,728.3339617308229
0.15625,730.4342876654118
0.1572265625,732.0095321163535
0.158203125,732.0095321163535
0.1591796875,732.0095321163535
0.16015625,732.0095321163535
0.1611328125,731.4844506327063
0.162109375,730.4342876654118
0.1630859375,729.9092061817646
0.1640625,730.4342876654118
0.1650390625,730.4342876654118
0.166015625,730.4342876654118
0.1669921875,729.9092061817646
0.16796875,728.8590432144701
0.1689453125,726.233635796234
0.169921875,723.6082283779979
0.1708984375,720.4577394761145
0.171875,717.3072505742311
0.1728515625,714.1567616723478
0.173828125,711.5313542541116
0.1748046875,709.4310283195227
0.17578125,708.3808653522283
0.1767578125,708.3808653522283
0.177734375,707.3307023849338
0.1787109375,706.2805394176394
0.1796875,705.7554579339921
0.1806640625,705.7554579339921
0.181640625,707.3307023849338
0.1826171875,709.95610980317
0.18359375,711.5313542541116
0.1845703125,713.6316801887006
0.185546875,715.2069246396422
0.1865234375,717.8323320578784
0.1875,720.4577394761145
0.1884765625,722.0329839270562
0.189453125,723.0831468943506
0.1904296875,723.6082283779979
0.19140625,725.1834728289396
0.1923828125,727.2837987635285
0.193359375,727.8088802471757
0.1943359375,727.8088802471757
0.1953125,727.8088802471757
0.1962890625,728.8590432144701
0.197265625,729.3841246981174
0.1982421875,729.9092061817646
0.19921875,729.9092061817646
0.2001953125,728.3339617308229
0.201171875,726.233635796234
0.2021484375,724.1333098616451
0.203125,722.0329839270562
0.2041015625,719.9326579924673
0.205078125,717.3072505742311
0.2060546875,714.681843155995
0.20703125,712.5815172214061
0.2080078125,712.0564357377589
0.208984375,711.0062727704644
0.2099609375,709.4310283195227
0.2109375,707.855783868581
0.2119140625,707.3307023849338
0.212890625,708.3808653522283
0.2138671875,709.95610980317
0.21484375,711.0062727704644
0.2158203125,713.6316801887006
0.216796875,716.7821690905839
0.2177734375,719.9326579924673
0.21875,721.507902443409
0.2197265625,723.0831468943506
0.220703125,723.6082283779979
0.2216796875,726.233635796234
0.22265625,729.3841246981174
0.2236328125,732.0095321163535
0.224609375,734.1098580509424
0.2255859375,735.1600210182369
0.2265625,735.6851025018841
0.2275390625,735.1600210182369
0.228515625,735.1600210182369
0.2294921875,733.5847765672952
0.23046875,729.3841246981174
0.2314453125,725.7085543125868
0.232421875,723.6082283779979
0.2333984375,722.0329839270562
0.234375,720.9828209597617
0.2353515625,718.8824950251728
0.236328125,716.7821690905839
0.2373046875,715.2069246396422
0.23828125,714.681843155995
0.2392578125,713.1065987050533
0.240234375,711.5313542541116
0.2412109375,709.4310283195227
0.2421875,707.855783868581
0.2431640625,707.3307023849338
0.244140625,708.3808653522283
0.2451171875,710.4811912868172
0.24609375,713.1065987050533
0.2470703125,714.681843155995
0.248046875,716.2570876069367
0.2490234375,718.8824950251728
0.25,721.507902443409
0.2509765625,724.6583913452923
0.251953125,725.7085543125868
0.2529296875,724.6583913452923
0.25390625,723.6082283779979
0.2548828125,723.6082283779979
0.255859375,724.1333098616451
0.2568359375,724.6583913452923
0.2578125,723.6082283779979
0.2587890625,722.0329839270562
0.259765625,721.507902443409
0.2607421875,722.0329839270562
0.26171875,722.5580654107034
0.2626953125,721.507902443409
0.263671875,719.9326579924673
0.2646484375,718.3574135415256
0.265625,717.3072505742311
0.2666015625,717.8323320578784
0.267578125,717.3072505742311
0.2685546875,716.2570876069367
0.26953125,714.681843155995
0.2705078125,714.1567616723478
0.271484375,714.1567616723478
0.2724609375,715.2069246396422
0.2734375,715.7320061232895
0.2744140625,716.7821690905839
0.275390625,716.2570876069367
0.2763671875,717.3072505742311
0.27734375,718.8824950251728
0.2783203125,722.0329839270562
0.279296875,724.1333098616451
0.2802734375,724.1333098616451
0.28125,724.1333098616451
0.2822265625,725.7085543125868
0.283203125,728.3339617308229
0.2841796875,729.9092061817646
0.28515625,729.9092061817646
0.2861328125,729.3841246981174
0.287109375,729.9092061817646
0.2880859375,732.5346136000007
0.2890625,735.1600210182369
0.2900390625,735.6851025018841
0.291015625,734.6349395345896
0.2919921875,733.059695083648
0.29296875,731.4844506327063
0.2939453125,731.4844506327063
0.294921875,730.4342876654118
0.2958984375,728.3339617308229
0.296875,725.1834728289396
0.2978515625,722.0329839270562
0.298828125,720.4577394761145
0.2998046875,719.4075765088201
0.30078125,717.8323320578784
0.3017578125,715.2069246396422
0.302734375,712.5815172214061
0.3037109375,711.5313542541116
0.3046875,712.0564357377589
0.3056640625,712.5815172214061
0.306640625,713.6316801887006
0.3076171875,714.1567616723478
0.30859375,715.7320061232895
0.3095703125,719.4075765088201
0.310546875,723.6082283779979
0.3115234375,727.2837987635285
0.3125,729.9092061817646
0.3134765625,732.0095321163535
0.314453125,734.6349395345896
0.3154296875,737.785428436473
0.31640625,739.8857543710619
0.3173828125,740.4108358547091
0.318359375,739.3606728874147
0.3193359375,737.785428436473
0.3203125,736.2101839855313
0.3212890625,733.5847765672952
0.322265625,728.3339617308229
0.3232421875,723.0831468943506
0.32421875,718.3574135415256
0.3251953125,714.681843155995
0.326171875,711.0062727704644
0.3271484375,706.8056209012866
0.328125,703.6551319994032
0.3291015625,701.0297245811671
0.330078125,699.9795616138726
0.3310546875,699.4544801302254
0.33203125,699.9795616138726
0.3330078125,701.0297245811671
0.333984375,703.130050515756
0.3349609375,707.855783868581
0.3359375,714.681843155995
0.3369140625,720.4577394761145
0.337890625,725.1834728289396
0.3388671875,729.3841246981174
0.33984375,733.5847765672952
0.3408203125,739.3606728874147
0.341796875,744.0864062402397
0.3427734375,746.1867321748286
0.34375,747.2368951421231
0.3447265625,747.7619766257703
0.345703125,747.7619766257703
0.3466796875,747.7619766257703
0.34765625,745.1365692075342
0.3486328125,740.9359173383564
0.349609375,736.2101839855313
0.3505859375,732.5346136000007
0.3515625,728.3339617308229
0.3525390625,723.6082283779979
0.353515625,718.8824950251728
0.3544921875,713.1065987050533
0.35546875,708.9059468358755
0.3564453125,706.2805394176394
0.357421875,704.7052949666977
0.3583984375,704.1802134830505
0.359375,702.6049690321088
0.3603515625,703.130050515756
0.361328125,705.2303764503449
0.3623046875,708.3808653522283
0.36328125,711.5313542541116
0.3642578125,713.1065987050533
0.365234375,715.2069246396422
0.3662109375,717.3072505742311
0.3671875,720.9828209597617
0.3681640625,724.6583913452923
0.369140625,727.8088802471757
0.3701171875,730.4342876654118
0.37109375,732.0095321163535
0.3720703125,734.1098580509424
0.373046875,735.6851025018841
0.3740234375,736.2101839855313
0.375,736.2101839855313
0.3759765625,734.6349395345896
0.376953125,733.059695083648
0.3779296875,731.4844506327063
0.37890625,729.9092061817646
0.3798828125,727.2837987635285
0.380859375,723.6082283779979
0.3818359375,720.4577394761145
0.3828125,718.8824950251728
0.3837890625,718.3574135415256
0.384765625,717.3072505742311
0.3857421875,716.2570876069367
0.38671875,715.2069246396422
0.3876953125,715.2069246396422
0.388671875,716.7821690905839
0.3896484375,718.3574135415256
0.390625,719.4075765088201
0.3916015625,720.4577394761145
0.392578125,722.0329839270562
0.3935546875,725.1834728289396
0.39453125,728.8590432144701
0.3955078125,733.059695083648
0.396484375,736.7352654691786
0.3974609375,738.3105099201202
0.3984375,738.3105099201202
0.3994140625,737.785428436473
0.400390625,736.7352654691786
0.4013671875,736.2101839855313
0.40234375,734.6349395345896
0.4033203125,731.4844506327063
0.404296875,728.8590432144701
0.4052734375,727.8088802471757
0.40625,726.7587172798812
0.4072265625,725.1834728289396
0.408203125,722.5580654107034
0.4091796875,719.4075765088201
0.41015625,716.2570876069367
0.4111328125,714.681843155995
0.412109375,713.6316801887006
0.4130859375,714.1567616723478
0.4140625,713.6316801887006
0.4150390625,713.6316801887006
0.416015625,714.681843155995
0.4169921875,717.8323320578784
0.41796875,719.9326579924673
0.4189453125,720.9828209597617
0.419921875,721.507902443409
0.4208984375,723.0831468943506
0.421875,725.1834728289396
0.4228515625,727.2837987635285
0.423828125,727.8088802471757
0.4248046875,728.3339617308229
0.42578125,728.3339617308229
0.4267578125,728.3339617308229
0.427734375,727.8088802471757
0.4287109375,726.7587172798812
0.4296875,724.6583913452923
0.4306640625,720.9828209597617
0.431640625,717.8323320578784
0.4326171875,714.1567616723478
0.43359375,711.5313542541116
0.4345703125,709.4310283195227
0.435546875,707.855783868581
0.4365234375,707.3307023849338
0.4375,706.2805394176394
0.4384765625,707.3307023849338
0.439453125,708.3808653522283
0.4404296875,709.95610980317
0.44140625,710.4811912868172
0.4423828125,711.0062727704644
0.443359375,711.5313542541116
0.4443359375,713.6316801887006
0.4453125,716.2570876069367
0.4462890625,719.4075765088201
0.447265625,722.0329839270562
0.4482421875,723.6082283779979
0.44921875,725.1834728289396
0.4501953125,727.8088802471757
0.451171875,729.3841246981174
0.4521484375,730.9593691490591
0.453125,731.4844506327063
0.4541015625,730.9593691490591
0.455078125,731.4844506327063
0.4560546875,732.5346136000007
0.45703125,733.5847765672952
0.4580078125,732.5346136000007
0.458984375,730.4342876654118
0.4599609375,727.8088802471757
0.4609375,724.1333098616451
0.4619140625,720.4577394761145
0.462890625,716.2570876069367
0.4638671875,711.5313542541116
0.46484375,707.855783868581
0.4658203125,705.2303764503449
0.466796875,704.1802134830505
0.4677734375,703.6551319994032
0.46875,703.130050515756
0.4697265625,702.6049690321088
0.470703125,702.6049690321088
0.4716796875,704.7052949666977
0.47265625,706.8056209012866
0.4736328125,708.9059468358755
0.474609375,712.0564357377589
0.4755859375,715.7320061232895
0.4765625,720.4577394761145
0.4775390625,724.6583913452923
0.478515625,728.3339617308229
0.4794921875,730.9593691490591
0.48046875,732.0095321163535
0.4814453125,732.0095321163535
0.482421875,733.059695083648
0.4833984375,732.0095321163535
0.484375,730.4342876654118
0.4853515625,727.8088802471757
0.486328125,725.7085543125868
0.4873046875,724.6583913452923
0.48828125,723.0831468943506
0.4892578125,719.9326579924673
0.490234375,716.2570876069367
0.4912109375,712.5815172214061
0.4921875,708.9059468358755
0.4931640625,707.3307023849338
0.494140625,706.2805394176394
0.4951171875,704.1802134830505
0.49609375,702.0798875484616
0.4970703125,702.0798875484616
0.498046875,703.130050515756
0.4990234375,704.1802134830505
0.5,704.7052949666977
0.5009765625,705.2303764503449
0.501953125,706.8056209012866
0.5029296875,709.4310283195227
0.50390625,713.6316801887006
0.5048828125,717.3072505742311
0.505859375,719.4075765088201
0.5068359375,720.9828209597617
0.5078125,724.1333098616451
0.5087890625,729.3841246981174
0.509765625,733.059695083648
0.5107421875,734.6349395345896
0.51171875,734.1098580509424
0.5126953125,733.059695083648
0.513671875,733.059695083648
0.5146484375,734.1098580509424
0.515625,733.5847765672952
0.5166015625,730.4342876654118
0.517578125,726.233635796234
0.5185546875,723.0831468943506
0.51953125,720.9828209597617
0.5205078125,718.8824950251728
0.521484375,714.1567616723478
0.5224609375,708.9059468358755
0.5234375,703.6551319994032
0.5244140625,701.0297245811671
0.525390625,700.5046430975199
0.5263671875,699.4544801302254
0.52734375,698.404317162931
0.5283203125,698.404317162931
0.529296875,700.5046430975199
0.5302734375,704.1802134830505
0.53125,707.855783868581
0.5322265625,711.0062727704644
0.533203125,714.681843155995
0.5341796875,718.3574135415256
0.53515625,723.6082283779979
0.5361328125,728.3339617308229
0.537109375,731.4844506327063
0.5380859375,733.059695083648
0.5390625,733.5847765672952
0.5400390625,733.059695083648
0.541015625,732.0095321163535
0.5419921875,730.4342876654118
0.54296875,727.8088802471757
0.5439453125,724.1333098616451
0.544921875,720.9828209597617
0.5458984375,718.3574135415256
0.546875,715.2069246396422
0.5478515625,711.0062727704644
0.548828125,707.3307023849338
0.5498046875,704.1802134830505
0.55078125,703.6551319994032
0.5517578125,704.1802134830505
0.552734375,705.7554579339921
0.5537109375,707.3307023849338
0.5546875,709.95610980317
0.5556640625,713.6316801887006
0.556640625,716.7821690905839
0.5576171875,720.9828209597617
0.55859375,724.1333098616451
0.5595703125,726.7587172798812
0.560546875,729.9092061817646
0.5615234375,732.5346136000007
0.5625,735.1600210182369
0.5634765625,737.785428436473
0.564453125,738.3105099201202
0.5654296875,738.8355914037675
0.56640625,739.3606728874147
0.5673828125,738.3105099201202
0.568359375,735.6851025018841
0.5693359375,732.0095321163535
0.5703125,727.2837987635285
0.5712890625,722.0329839270562
0.572265625,716.7821690905839
0.5732421875,712.0564357377589
0.57421875,708.9059468358755
0.5751953125,706.2805394176394
0.576171875,704.1802134830505
0.5771484375,703.130050515756
0.578125,702.6049690321088
0.5791015625,702.6049690321088
0.580078125,703.130050515756
0.5810546875,704.1802134830505
0.58203125,705.2303764503449
0.5830078125,707.3307023849338
0.583984375,710.4811912868172
0.5849609375,713.6316801887006
0.5859375,717.8323320578784
0.5869140625,722.0329839270562
0.587890625,725.1834728289396
0.5888671875,727.8088802471757
0.58984375,729.9092061817646
0.5908203125,731.4844506327063
0.591796875,731.4844506327063
0.5927734375,730.4342876654118
0.59375,729.9092061817646
0.5947265625,729.3841246981174
0.595703125,728.3339617308229
0.5966796875,726.7587172798812
0.59765625,725.1834728289396
0.5986328125,723.0831468943506
0.599609375,721.507902443409
0.6005859375,718.3574135415256
0.6015625,714.1567616723478
0.6025390625,710.4811912868172
0.603515625,706.8056209012866
0.6044921875,705.2303764503449
0.60546875,704.7052949666977
0.6064453125,705.2303764503449
0.607421875,704.7052949666977
0.6083984375,705.2303764503449
0.609375,705.7554579339921
0.6103515625,708.9059468358755
0.611328125,712.5815172214061
0.6123046875,715.7320061232895
0.61328125,718.8824950251728
0.6142578125,722.0329839270562
0.615234375,726.7587172798812
0.6162109375,732.5346136000007
0.6171875,736.7352654691786
0.6181640625,738.8355914037675
0.619140625,739.3606728874147
0.6201171875,738.8355914037675
0.62109375,738.8355914037675
0.6220703125,738.3105099201202
0.623046875,736.2101839855313
0.6240234375,733.5847765672952
0.625,730.4342876654118
0.6259765625,727.2837987635285
0.626953125,724.1333098616451
0.6279296875,721.507902443409
0.62890625,717.8323320578784
0.6298828125,714.1567616723478
0.630859375,709.4310283195227
0.6318359375,705.2303764503449
0.6328125,702.0798875484616
0.6337890625,699.9795616138726
0.634765625,697.8792356792837
0.6357421875,695.7789097446948
0.63671875,695.2538282610476
0.6376953125,696.303991228342
0.638671875,698.9293986465782
0.6396484375,702.6049690321088
0.640625,705.7554579339921
0.6416015625,708.9059468358755
0.642578125,713.6316801887006
0.6435546875,718.8824950251728
0.64453125,724.1333098616451
0.6455078125,728.8590432144701
0.646484375,732.0095321163535
0.6474609375,734.6349395345896
0.6484375,737.785428436473
0.6494140625,739.3606728874147
0.650390625,740.4108358547091
0.6513671875,739.8857543710619
